# Filter name : HST/ACS_WFC.FR423N
# Description : FR423N ramp filter for HST ACS_WFC at central wavelength
# Photometric system : ACS-WFC
# FilterType : photon
# Band name : ------
# Observatory : HST
# Instrument : ACS
# Comments : Response calculated using the stsynphot python package by STScI. In particular, function stsynphot.band("acs,wfc1,fr423n#4230"). Please, take a look to stsynphot documentation and HST instrument documentation
# 
3.96500e+03 4.68524e-05
3.96600e+03 4.80430e-05
3.96700e+03 4.92379e-05
3.96800e+03 5.04374e-05
3.96900e+03 5.16414e-05
3.97000e+03 5.29112e-05
3.97100e+03 5.41778e-05
3.97200e+03 5.54489e-05
3.97300e+03 5.67244e-05
3.97400e+03 5.80042e-05
3.97500e+03 5.93450e-05
3.97600e+03 6.06904e-05
3.97700e+03 6.20405e-05
3.97800e+03 6.33953e-05
3.97900e+03 6.47546e-05
3.98000e+03 6.61693e-05
3.98100e+03 6.76005e-05
3.98200e+03 6.90367e-05
3.98300e+03 7.04785e-05
3.98400e+03 7.19256e-05
3.98500e+03 7.34218e-05
3.98600e+03 7.49241e-05
3.98700e+03 7.64316e-05
3.98800e+03 7.79448e-05
3.98900e+03 7.94635e-05
3.99000e+03 8.10245e-05
3.99100e+03 8.25739e-05
3.99200e+03 8.41284e-05
3.99300e+03 8.56879e-05
3.99400e+03 8.72527e-05
3.99500e+03 8.88513e-05
3.99600e+03 9.04553e-05
3.99700e+03 9.20643e-05
3.99800e+03 9.36789e-05
3.99900e+03 9.52985e-05
4.00000e+03 9.69435e-05
4.00100e+03 9.85244e-05
4.00200e+03 1.00108e-04
4.00300e+03 1.01696e-04
4.00400e+03 1.03286e-04
4.00500e+03 1.04891e-04
4.00600e+03 1.06499e-04
4.00700e+03 1.08110e-04
4.00800e+03 1.09725e-04
4.00900e+03 1.11343e-04
4.01000e+03 1.12967e-04
4.01100e+03 1.14585e-04
4.01200e+03 1.16207e-04
4.01300e+03 1.17831e-04
4.01400e+03 1.19458e-04
4.01500e+03 1.21083e-04
4.01600e+03 1.22711e-04
4.01700e+03 1.24341e-04
4.01800e+03 1.25974e-04
4.01900e+03 1.27611e-04
4.02000e+03 1.29237e-04
4.02100e+03 1.30883e-04
4.02200e+03 1.32533e-04
4.02300e+03 1.34186e-04
4.02400e+03 1.35843e-04
4.02500e+03 1.37481e-04
4.02600e+03 1.39123e-04
4.02700e+03 1.40769e-04
4.02800e+03 1.42417e-04
4.02900e+03 1.44069e-04
4.03000e+03 1.45696e-04
4.03100e+03 1.47306e-04
4.03200e+03 1.48919e-04
4.03300e+03 1.50534e-04
4.03400e+03 1.52152e-04
4.03500e+03 1.53739e-04
4.03600e+03 1.55329e-04
4.03700e+03 1.56921e-04
4.03800e+03 1.58516e-04
4.03900e+03 1.60114e-04
4.04000e+03 1.61676e-04
4.04100e+03 1.63221e-04
4.04200e+03 1.64769e-04
4.04300e+03 1.66319e-04
4.04400e+03 1.67872e-04
4.04500e+03 1.69384e-04
4.04600e+03 1.70898e-04
4.04700e+03 1.72415e-04
4.04800e+03 1.73934e-04
4.04900e+03 1.75455e-04
4.05000e+03 1.76933e-04
4.05100e+03 1.78397e-04
4.05200e+03 1.79862e-04
4.05300e+03 1.81330e-04
4.05400e+03 1.82799e-04
4.05500e+03 1.84224e-04
4.05600e+03 1.85652e-04
4.05700e+03 1.87081e-04
4.05800e+03 1.88512e-04
4.05900e+03 1.89945e-04
4.06000e+03 1.91336e-04
4.06100e+03 1.92750e-04
4.06200e+03 1.94166e-04
4.06300e+03 1.95584e-04
4.06400e+03 1.97004e-04
4.06500e+03 1.98387e-04
4.06600e+03 1.99772e-04
4.06700e+03 2.01159e-04
4.06800e+03 2.02548e-04
4.06900e+03 2.03939e-04
4.07000e+03 2.05301e-04
4.07100e+03 2.06677e-04
4.07200e+03 2.08056e-04
4.07300e+03 2.09437e-04
4.07400e+03 2.10820e-04
4.07500e+03 2.12186e-04
4.07600e+03 2.13556e-04
4.07700e+03 2.14927e-04
4.07800e+03 2.16300e-04
4.07900e+03 2.17676e-04
4.08000e+03 2.19055e-04
4.08100e+03 2.20405e-04
4.08200e+03 2.21756e-04
4.08300e+03 2.23110e-04
4.08400e+03 2.24465e-04
4.08500e+03 2.25853e-04
4.08600e+03 2.27243e-04
4.08700e+03 2.28634e-04
4.08800e+03 2.30028e-04
4.08900e+03 2.31423e-04
4.09000e+03 2.32896e-04
4.09100e+03 2.34371e-04
4.09200e+03 2.35850e-04
4.09300e+03 2.37330e-04
4.09400e+03 2.38813e-04
4.09500e+03 2.40436e-04
4.09600e+03 2.42061e-04
4.09700e+03 2.43689e-04
4.09800e+03 2.45320e-04
4.09900e+03 2.46952e-04
4.10000e+03 2.48823e-04
4.10100e+03 2.50658e-04
4.10200e+03 2.52495e-04
4.10300e+03 2.54334e-04
4.10400e+03 2.56176e-04
4.10500e+03 2.58404e-04
4.10600e+03 2.60634e-04
4.10700e+03 2.62867e-04
4.10800e+03 2.65103e-04
4.10900e+03 2.67342e-04
4.11000e+03 2.70197e-04
4.11100e+03 2.73088e-04
4.11200e+03 2.75983e-04
4.11300e+03 2.78882e-04
4.11400e+03 2.81785e-04
4.11500e+03 2.85669e-04
4.11600e+03 2.89559e-04
4.11700e+03 2.93454e-04
4.11800e+03 2.97354e-04
4.11900e+03 3.01261e-04
4.12000e+03 3.06734e-04
4.12100e+03 3.12155e-04
4.12200e+03 3.17582e-04
4.12300e+03 3.23014e-04
4.12400e+03 3.28452e-04
4.12500e+03 3.36420e-04
4.12600e+03 3.44397e-04
4.12700e+03 3.52383e-04
4.12800e+03 3.60377e-04
4.12900e+03 3.68380e-04
4.13000e+03 3.80541e-04
4.13100e+03 3.92726e-04
4.13200e+03 4.04925e-04
4.13300e+03 4.17137e-04
4.13400e+03 4.29364e-04
4.13500e+03 4.48572e-04
4.13600e+03 4.67802e-04
4.13700e+03 4.87053e-04
4.13800e+03 5.06326e-04
4.13900e+03 5.25619e-04
4.14000e+03 5.56933e-04
4.14100e+03 5.88465e-04
4.14200e+03 6.20053e-04
4.14300e+03 6.51694e-04
4.14400e+03 6.83390e-04
4.14500e+03 7.36426e-04
4.14600e+03 7.89553e-04
4.14700e+03 8.42773e-04
4.14800e+03 8.96085e-04
4.14900e+03 9.49487e-04
4.15000e+03 1.04197e-03
4.15100e+03 1.13413e-03
4.15200e+03 1.22636e-03
4.15300e+03 1.31867e-03
4.15400e+03 1.41106e-03
4.15500e+03 1.57735e-03
4.15600e+03 1.74377e-03
4.15700e+03 1.91035e-03
4.15800e+03 2.07707e-03
4.15900e+03 2.24393e-03
4.16000e+03 2.55596e-03
4.16100e+03 2.86851e-03
4.16200e+03 3.18137e-03
4.16300e+03 3.49456e-03
4.16400e+03 3.80807e-03
4.16500e+03 4.41760e-03
4.16600e+03 5.02776e-03
4.16700e+03 5.63856e-03
4.16800e+03 6.24999e-03
4.16900e+03 6.86203e-03
4.17000e+03 8.09490e-03
4.17100e+03 9.32973e-03
4.17200e+03 1.05661e-02
4.17300e+03 1.18038e-02
4.17400e+03 1.30431e-02
4.17500e+03 1.55852e-02
4.17600e+03 1.81303e-02
4.17700e+03 2.06785e-02
4.17800e+03 2.32296e-02
4.17900e+03 2.57838e-02
4.18000e+03 3.08681e-02
4.18100e+03 3.59580e-02
4.18200e+03 4.10538e-02
4.18300e+03 4.61555e-02
4.18400e+03 5.12632e-02
4.18500e+03 6.01052e-02
4.18600e+03 6.89575e-02
4.18700e+03 7.78200e-02
4.18800e+03 8.66927e-02
4.18900e+03 9.55761e-02
4.19000e+03 1.06821e-01
4.19100e+03 1.18046e-01
4.19200e+03 1.29277e-01
4.19300e+03 1.40515e-01
4.19400e+03 1.51760e-01
4.19500e+03 1.60749e-01
4.19600e+03 1.69744e-01
4.19700e+03 1.78744e-01
4.19800e+03 1.87749e-01
4.19900e+03 1.96760e-01
4.20000e+03 2.01243e-01
4.20100e+03 2.05738e-01
4.20200e+03 2.10237e-01
4.20300e+03 2.14739e-01
4.20400e+03 2.19244e-01
4.20500e+03 2.20764e-01
4.20600e+03 2.22285e-01
4.20700e+03 2.23807e-01
4.20800e+03 2.25329e-01
4.20900e+03 2.26853e-01
4.21000e+03 2.27255e-01
4.21100e+03 2.27652e-01
4.21200e+03 2.28050e-01
4.21300e+03 2.28449e-01
4.21400e+03 2.28848e-01
4.21500e+03 2.28971e-01
4.21600e+03 2.29093e-01
4.21700e+03 2.29216e-01
4.21800e+03 2.29339e-01
4.21900e+03 2.29463e-01
4.22000e+03 2.29543e-01
4.22100e+03 2.29613e-01
4.22200e+03 2.29683e-01
4.22300e+03 2.29754e-01
4.22400e+03 2.29825e-01
4.22500e+03 2.29892e-01
4.22600e+03 2.29958e-01
4.22700e+03 2.30025e-01
4.22800e+03 2.30092e-01
4.22900e+03 2.30159e-01
4.23000e+03 2.30226e-01
4.23100e+03 2.30270e-01
4.23200e+03 2.30316e-01
4.23300e+03 2.30360e-01
4.23400e+03 2.30405e-01
4.23500e+03 2.30449e-01
4.23600e+03 2.30493e-01
4.23700e+03 2.30537e-01
4.23800e+03 2.30582e-01
4.23900e+03 2.30626e-01
4.24000e+03 2.30656e-01
4.24100e+03 2.30675e-01
4.24200e+03 2.30695e-01
4.24300e+03 2.30715e-01
4.24400e+03 2.30735e-01
4.24500e+03 2.30623e-01
4.24600e+03 2.30512e-01
4.24700e+03 2.30400e-01
4.24800e+03 2.30289e-01
4.24900e+03 2.30178e-01
4.25000e+03 2.29401e-01
4.25100e+03 2.28639e-01
4.25200e+03 2.27875e-01
4.25300e+03 2.27111e-01
4.25400e+03 2.26347e-01
4.25500e+03 2.23394e-01
4.25600e+03 2.20439e-01
4.25700e+03 2.17483e-01
4.25800e+03 2.14527e-01
4.25900e+03 2.11568e-01
4.26000e+03 2.04257e-01
4.26100e+03 1.96955e-01
4.26200e+03 1.89649e-01
4.26300e+03 1.82339e-01
4.26400e+03 1.75025e-01
4.26500e+03 1.63956e-01
4.26600e+03 1.52881e-01
4.26700e+03 1.41800e-01
4.26800e+03 1.30714e-01
4.26900e+03 1.19621e-01
4.27000e+03 1.09350e-01
4.27100e+03 9.90645e-02
4.27200e+03 8.87755e-02
4.27300e+03 7.84830e-02
4.27400e+03 6.81864e-02
4.27500e+03 6.15827e-02
4.27600e+03 5.49767e-02
4.27700e+03 4.83682e-02
4.27800e+03 4.17573e-02
4.27900e+03 3.51441e-02
4.28000e+03 3.16671e-02
4.28100e+03 2.81864e-02
4.28200e+03 2.47050e-02
4.28300e+03 2.12230e-02
4.28400e+03 1.77404e-02
4.28500e+03 1.60322e-02
4.28600e+03 1.43238e-02
4.28700e+03 1.26151e-02
4.28800e+03 1.09060e-02
4.28900e+03 9.19659e-03
4.29000e+03 8.35792e-03
4.29100e+03 7.51979e-03
4.29200e+03 6.68135e-03
4.29300e+03 5.84259e-03
4.29400e+03 5.00352e-03
4.29500e+03 4.57980e-03
4.29600e+03 4.15593e-03
4.29700e+03 3.73189e-03
4.29800e+03 3.30771e-03
4.29900e+03 2.88336e-03
4.30000e+03 2.66078e-03
4.30100e+03 2.43791e-03
4.30200e+03 2.21500e-03
4.30300e+03 1.99203e-03
4.30400e+03 1.76903e-03
4.30500e+03 1.64740e-03
4.30600e+03 1.52575e-03
4.30700e+03 1.40407e-03
4.30800e+03 1.28236e-03
4.30900e+03 1.16063e-03
4.31000e+03 1.09176e-03
4.31100e+03 1.02302e-03
4.31200e+03 9.54259e-04
4.31300e+03 8.85459e-04
4.31400e+03 8.16622e-04
4.31500e+03 7.76355e-04
4.31600e+03 7.36067e-04
4.31700e+03 6.95757e-04
4.31800e+03 6.55426e-04
4.31900e+03 6.15075e-04
4.32000e+03 5.90703e-04
4.32100e+03 5.66227e-04
4.32200e+03 5.41745e-04
4.32300e+03 5.17260e-04
4.32400e+03 4.92770e-04
4.32500e+03 4.77492e-04
4.32600e+03 4.62210e-04
4.32700e+03 4.46926e-04
4.32800e+03 4.31639e-04
4.32900e+03 4.16350e-04
4.33000e+03 4.06508e-04
4.33100e+03 3.96641e-04
4.33200e+03 3.86773e-04
4.33300e+03 3.76905e-04
4.33400e+03 3.67036e-04
4.33500e+03 3.60464e-04
4.33600e+03 3.53892e-04
4.33700e+03 3.47319e-04
4.33800e+03 3.40745e-04
4.33900e+03 3.34172e-04
4.34000e+03 3.29630e-04
4.34100e+03 3.25129e-04
4.34200e+03 3.20626e-04
4.34300e+03 3.16122e-04
4.34400e+03 3.11616e-04
4.34500e+03 3.08380e-04
4.34600e+03 3.05143e-04
4.34700e+03 3.01904e-04
4.34800e+03 2.98665e-04
4.34900e+03 2.95425e-04
4.35000e+03 2.92985e-04
4.35100e+03 2.90504e-04
4.35200e+03 2.88023e-04
4.35300e+03 2.85542e-04
4.35400e+03 2.83062e-04
4.35500e+03 2.81085e-04
4.35600e+03 2.79108e-04
4.35700e+03 2.77132e-04
4.35800e+03 2.75155e-04
4.35900e+03 2.73178e-04
4.36000e+03 2.71514e-04
4.36100e+03 2.69870e-04
4.36200e+03 2.68224e-04
4.36300e+03 2.66578e-04
4.36400e+03 2.64932e-04
4.36500e+03 2.63475e-04
4.36600e+03 2.62017e-04
4.36700e+03 2.60559e-04
4.36800e+03 2.59101e-04
4.36900e+03 2.57642e-04
4.37000e+03 2.56290e-04
4.37100e+03 2.54941e-04
4.37200e+03 2.53592e-04
4.37300e+03 2.52243e-04
4.37400e+03 2.50894e-04
4.37500e+03 2.49594e-04
4.37600e+03 2.48294e-04
4.37700e+03 2.46993e-04
4.37800e+03 2.45693e-04
4.37900e+03 2.44393e-04
4.38000e+03 2.43103e-04
4.38100e+03 2.41786e-04
4.38200e+03 2.40469e-04
4.38300e+03 2.39152e-04
4.38400e+03 2.37835e-04
4.38500e+03 2.36503e-04
4.38600e+03 2.35173e-04
4.38700e+03 2.33842e-04
4.38800e+03 2.32511e-04
4.38900e+03 2.31180e-04
4.39000e+03 2.29818e-04
4.39100e+03 2.28448e-04
4.39200e+03 2.27079e-04
4.39300e+03 2.25710e-04
4.39400e+03 2.24341e-04
4.39500e+03 2.22930e-04
4.39600e+03 2.21519e-04
4.39700e+03 2.20108e-04
4.39800e+03 2.18697e-04
4.39900e+03 2.17286e-04
4.40000e+03 2.15827e-04
4.40100e+03 2.14393e-04
4.40200e+03 2.12958e-04
4.40300e+03 2.11523e-04
4.40400e+03 2.10089e-04
4.40500e+03 2.08601e-04
4.40600e+03 2.07114e-04
4.40700e+03 2.05626e-04
4.40800e+03 2.04138e-04
4.40900e+03 2.02650e-04
4.41000e+03 2.01109e-04
4.41100e+03 1.99564e-04
4.41200e+03 1.98019e-04
4.41300e+03 1.96474e-04
4.41400e+03 1.94928e-04
4.41500e+03 1.93331e-04
4.41600e+03 1.91735e-04
4.41700e+03 1.90138e-04
4.41800e+03 1.88541e-04
4.41900e+03 1.86944e-04
4.42000e+03 1.85299e-04
4.42100e+03 1.83614e-04
4.42200e+03 1.81930e-04
4.42300e+03 1.80246e-04
4.42400e+03 1.78562e-04
4.42500e+03 1.76838e-04
4.42600e+03 1.75114e-04
4.42700e+03 1.73390e-04
4.42800e+03 1.71667e-04
4.42900e+03 1.69945e-04
4.43000e+03 1.68188e-04
4.43100e+03 1.66456e-04
4.43200e+03 1.64724e-04
4.43300e+03 1.62992e-04
4.43400e+03 1.61260e-04
4.43500e+03 1.59501e-04
4.43600e+03 1.57742e-04
4.43700e+03 1.55983e-04
4.43800e+03 1.54225e-04
4.43900e+03 1.52465e-04
4.44000e+03 1.50688e-04
4.44100e+03 1.48924e-04
4.44200e+03 1.47160e-04
4.44300e+03 1.45395e-04
4.44400e+03 1.43629e-04
4.44500e+03 1.41855e-04
4.44600e+03 1.40081e-04
4.44700e+03 1.38306e-04
4.44800e+03 1.36531e-04
4.44900e+03 1.34756e-04
4.45000e+03 1.32982e-04
4.45100e+03 1.31188e-04
4.45200e+03 1.29395e-04
4.45300e+03 1.27602e-04
4.45400e+03 1.25809e-04
4.45500e+03 1.24028e-04
4.45600e+03 1.22247e-04
4.45700e+03 1.20467e-04
4.45800e+03 1.18686e-04
4.45900e+03 1.16906e-04
4.46000e+03 1.15149e-04
4.46100e+03 1.13407e-04
4.46200e+03 1.11665e-04
4.46300e+03 1.09923e-04
4.46400e+03 1.08180e-04
4.46500e+03 1.06470e-04
4.46600e+03 1.04759e-04
4.46700e+03 1.03049e-04
4.46800e+03 1.01338e-04
4.46900e+03 9.96266e-05
4.47000e+03 9.79582e-05
4.47100e+03 9.62795e-05
4.47200e+03 9.46008e-05
4.47300e+03 9.29222e-05
4.47400e+03 9.12440e-05
4.47500e+03 8.96182e-05
4.47600e+03 8.79925e-05
4.47700e+03 8.63669e-05
4.47800e+03 8.47416e-05
4.47900e+03 8.31162e-05
4.48000e+03 8.15524e-05
4.48100e+03 7.99836e-05
4.48200e+03 7.84152e-05
4.48300e+03 7.68471e-05
4.48400e+03 7.52792e-05
4.48500e+03 7.37810e-05
4.48600e+03 7.22831e-05
4.48700e+03 7.07854e-05
4.48800e+03 6.92882e-05
4.48900e+03 6.77910e-05
4.49000e+03 6.63706e-05
4.49100e+03 6.49561e-05
4.49200e+03 6.35418e-05
4.49300e+03 6.21274e-05
4.49400e+03 6.07131e-05
4.49500e+03 5.93806e-05
4.49600e+03 5.80485e-05
4.49700e+03 5.67161e-05
4.49800e+03 5.53839e-05
4.49900e+03 5.40518e-05
4.50000e+03 5.28060e-05
4.50100e+03 5.15560e-05
4.50200e+03 5.03062e-05
4.50300e+03 4.90567e-05
4.50400e+03 4.78073e-05
4.50500e+03 4.66479e-05
