# Filter name : HST/ACS_WFC.FR388N
# Description : FR388N ramp filter for HST ACS_WFC at central wavelength
# Photometric system : ACS-WFC
# FilterType : photon
# Band name : ------
# Observatory : HST
# Instrument : ACS
# Comments : Response calculated using the stsynphot python package by STScI. In particular, function stsynphot.band("acs,wfc1,fr388n#3880"). Please, take a look to stsynphot documentation and HST instrument documentation
# 
3.64700e+03 2.91089e-05
3.64800e+03 2.98408e-05
3.64900e+03 3.05762e-05
3.65000e+03 3.13466e-05
3.65100e+03 3.21188e-05
3.65200e+03 3.28946e-05
3.65300e+03 3.36737e-05
3.65400e+03 3.44562e-05
3.65500e+03 3.52698e-05
3.65600e+03 3.60868e-05
3.65700e+03 3.69075e-05
3.65800e+03 3.77318e-05
3.65900e+03 3.85596e-05
3.66000e+03 3.94137e-05
3.66100e+03 4.02693e-05
3.66200e+03 4.11286e-05
3.66300e+03 4.19914e-05
3.66400e+03 4.28578e-05
3.66500e+03 4.37455e-05
3.66600e+03 4.46366e-05
3.66700e+03 4.55317e-05
3.66800e+03 4.64304e-05
3.66900e+03 4.73326e-05
3.67000e+03 4.82506e-05
3.67100e+03 4.91736e-05
3.67200e+03 5.01005e-05
3.67300e+03 5.10312e-05
3.67400e+03 5.19657e-05
3.67500e+03 5.29101e-05
3.67600e+03 5.38585e-05
3.67700e+03 5.48103e-05
3.67800e+03 5.57664e-05
3.67900e+03 5.67261e-05
3.68000e+03 5.76901e-05
3.68100e+03 5.86649e-05
3.68200e+03 5.96438e-05
3.68300e+03 6.06266e-05
3.68400e+03 6.16135e-05
3.68500e+03 6.25996e-05
3.68600e+03 6.35895e-05
3.68700e+03 6.45834e-05
3.68800e+03 6.55814e-05
3.68900e+03 6.65836e-05
3.69000e+03 6.75793e-05
3.69100e+03 6.85692e-05
3.69200e+03 6.95633e-05
3.69300e+03 7.05607e-05
3.69400e+03 7.15621e-05
3.69500e+03 7.25519e-05
3.69600e+03 7.35451e-05
3.69700e+03 7.45423e-05
3.69800e+03 7.55428e-05
3.69900e+03 7.65471e-05
3.70000e+03 7.75359e-05
3.70100e+03 7.85400e-05
3.70200e+03 7.95483e-05
3.70300e+03 8.05607e-05
3.70400e+03 8.15768e-05
3.70500e+03 8.25737e-05
3.70600e+03 8.35749e-05
3.70700e+03 8.45796e-05
3.70800e+03 8.55881e-05
3.70900e+03 8.66004e-05
3.71000e+03 8.75911e-05
3.71100e+03 8.85924e-05
3.71200e+03 8.95972e-05
3.71300e+03 9.06058e-05
3.71400e+03 9.16185e-05
3.71500e+03 9.26087e-05
3.71600e+03 9.36029e-05
3.71700e+03 9.46004e-05
3.71800e+03 9.56017e-05
3.71900e+03 9.66066e-05
3.72000e+03 9.75905e-05
3.72100e+03 9.85762e-05
3.72200e+03 9.95661e-05
3.72300e+03 1.00559e-04
3.72400e+03 1.01557e-04
3.72500e+03 1.02535e-04
3.72600e+03 1.03516e-04
3.72700e+03 1.04501e-04
3.72800e+03 1.05490e-04
3.72900e+03 1.06482e-04
3.73000e+03 1.07461e-04
3.73100e+03 1.08462e-04
3.73200e+03 1.09467e-04
3.73300e+03 1.10476e-04
3.73400e+03 1.11488e-04
3.73500e+03 1.12498e-04
3.73600e+03 1.13512e-04
3.73700e+03 1.14529e-04
3.73800e+03 1.15551e-04
3.73900e+03 1.16576e-04
3.74000e+03 1.17615e-04
3.74100e+03 1.18648e-04
3.74200e+03 1.19685e-04
3.74300e+03 1.20726e-04
3.74400e+03 1.21770e-04
3.74500e+03 1.22854e-04
3.74600e+03 1.23942e-04
3.74700e+03 1.25033e-04
3.74800e+03 1.26129e-04
3.74900e+03 1.27228e-04
3.75000e+03 1.28407e-04
3.75100e+03 1.29603e-04
3.75200e+03 1.30804e-04
3.75300e+03 1.32009e-04
3.75400e+03 1.33219e-04
3.75500e+03 1.34570e-04
3.75600e+03 1.35926e-04
3.75700e+03 1.37287e-04
3.75800e+03 1.38653e-04
3.75900e+03 1.40024e-04
3.76000e+03 1.41633e-04
3.76100e+03 1.43257e-04
3.76200e+03 1.44887e-04
3.76300e+03 1.46523e-04
3.76400e+03 1.48166e-04
3.76500e+03 1.50200e-04
3.76600e+03 1.52243e-04
3.76700e+03 1.54294e-04
3.76800e+03 1.56353e-04
3.76900e+03 1.58421e-04
3.77000e+03 1.61131e-04
3.77100e+03 1.63835e-04
3.77200e+03 1.66549e-04
3.77300e+03 1.69274e-04
3.77400e+03 1.72010e-04
3.77500e+03 1.75802e-04
3.77600e+03 1.79609e-04
3.77700e+03 1.83432e-04
3.77800e+03 1.87271e-04
3.77900e+03 1.91124e-04
3.78000e+03 1.96739e-04
3.78100e+03 2.02465e-04
3.78200e+03 2.08219e-04
3.78300e+03 2.14000e-04
3.78400e+03 2.19811e-04
3.78500e+03 2.28623e-04
3.78600e+03 2.37479e-04
3.78700e+03 2.46379e-04
3.78800e+03 2.55324e-04
3.78900e+03 2.64313e-04
3.79000e+03 2.78530e-04
3.79100e+03 2.92838e-04
3.79200e+03 3.07219e-04
3.79300e+03 3.21674e-04
3.79400e+03 3.36201e-04
3.79500e+03 3.60099e-04
3.79600e+03 3.84120e-04
3.79700e+03 4.08263e-04
3.79800e+03 4.32529e-04
3.79900e+03 4.56922e-04
3.80000e+03 4.98634e-04
3.80100e+03 5.40039e-04
3.80200e+03 5.81579e-04
3.80300e+03 6.23255e-04
3.80400e+03 6.65066e-04
3.80500e+03 7.39814e-04
3.80600e+03 8.14809e-04
3.80700e+03 8.90047e-04
3.80800e+03 9.65532e-04
3.80900e+03 1.04126e-03
3.81000e+03 1.18223e-03
3.81100e+03 1.32389e-03
3.81200e+03 1.46607e-03
3.81300e+03 1.60876e-03
3.81400e+03 1.75196e-03
3.81500e+03 2.02966e-03
3.81600e+03 2.30836e-03
3.81700e+03 2.58807e-03
3.81800e+03 2.86878e-03
3.81900e+03 3.15050e-03
3.82000e+03 3.71878e-03
3.82100e+03 4.28940e-03
3.82200e+03 4.86216e-03
3.82300e+03 5.43702e-03
3.82400e+03 6.01403e-03
3.82500e+03 7.20891e-03
3.82600e+03 8.40821e-03
3.82700e+03 9.61201e-03
3.82800e+03 1.08202e-02
3.82900e+03 1.20330e-02
3.83000e+03 1.45091e-02
3.83100e+03 1.69983e-02
3.83200e+03 1.94979e-02
3.83300e+03 2.20077e-02
3.83400e+03 2.45279e-02
3.83500e+03 2.91204e-02
3.83600e+03 3.37318e-02
3.83700e+03 3.83623e-02
3.83800e+03 4.30118e-02
3.83900e+03 4.76805e-02
3.84000e+03 5.40584e-02
3.84100e+03 6.04588e-02
3.84200e+03 6.68848e-02
3.84300e+03 7.33363e-02
3.84400e+03 7.98135e-02
3.84500e+03 8.54078e-02
3.84600e+03 9.10240e-02
3.84700e+03 9.66626e-02
3.84800e+03 1.02323e-01
3.84900e+03 1.08006e-01
3.85000e+03 1.11046e-01
3.85100e+03 1.14121e-01
3.85200e+03 1.17209e-01
3.85300e+03 1.20309e-01
3.85400e+03 1.23422e-01
3.85500e+03 1.24638e-01
3.85600e+03 1.25859e-01
3.85700e+03 1.27085e-01
3.85800e+03 1.28315e-01
3.85900e+03 1.29549e-01
3.86000e+03 1.30047e-01
3.86100e+03 1.30526e-01
3.86200e+03 1.31006e-01
3.86300e+03 1.31488e-01
3.86400e+03 1.31970e-01
3.86500e+03 1.32270e-01
3.86600e+03 1.32570e-01
3.86700e+03 1.32870e-01
3.86800e+03 1.33171e-01
3.86900e+03 1.33473e-01
3.87000e+03 1.33745e-01
3.87100e+03 1.34042e-01
3.87200e+03 1.34338e-01
3.87300e+03 1.34636e-01
3.87400e+03 1.34933e-01
3.87500e+03 1.35229e-01
3.87600e+03 1.35525e-01
3.87700e+03 1.35821e-01
3.87800e+03 1.36118e-01
3.87900e+03 1.36415e-01
3.88000e+03 1.36713e-01
3.88100e+03 1.37023e-01
3.88200e+03 1.37334e-01
3.88300e+03 1.37646e-01
3.88400e+03 1.37958e-01
3.88500e+03 1.38270e-01
3.88600e+03 1.38582e-01
3.88700e+03 1.38896e-01
3.88800e+03 1.39209e-01
3.88900e+03 1.39523e-01
3.89000e+03 1.39828e-01
3.89100e+03 1.40115e-01
3.89200e+03 1.40403e-01
3.89300e+03 1.40691e-01
3.89400e+03 1.40980e-01
3.89500e+03 1.41177e-01
3.89600e+03 1.41375e-01
3.89700e+03 1.41573e-01
3.89800e+03 1.41770e-01
3.89900e+03 1.41968e-01
3.90000e+03 1.41690e-01
3.90100e+03 1.41435e-01
3.90200e+03 1.41178e-01
3.90300e+03 1.40919e-01
3.90400e+03 1.40658e-01
3.90500e+03 1.38822e-01
3.90600e+03 1.36978e-01
3.90700e+03 1.35124e-01
3.90800e+03 1.33261e-01
3.90900e+03 1.31389e-01
3.91000e+03 1.26507e-01
3.91100e+03 1.21584e-01
3.91200e+03 1.16639e-01
3.91300e+03 1.11672e-01
3.91400e+03 1.06684e-01
3.91500e+03 9.95168e-02
3.91600e+03 9.23188e-02
3.91700e+03 8.50898e-02
3.91800e+03 7.78301e-02
3.91900e+03 7.05394e-02
3.92000e+03 6.43008e-02
3.92100e+03 5.80408e-02
3.92200e+03 5.17530e-02
3.92300e+03 4.54376e-02
3.92400e+03 3.90943e-02
3.92500e+03 3.52856e-02
3.92600e+03 3.14601e-02
3.92700e+03 2.76178e-02
3.92800e+03 2.37586e-02
3.92900e+03 1.98825e-02
3.93000e+03 1.79307e-02
3.93100e+03 1.59668e-02
3.93200e+03 1.39952e-02
3.93300e+03 1.20158e-02
3.93400e+03 1.00287e-02
3.93500e+03 9.07865e-03
3.93600e+03 8.12489e-03
3.93700e+03 7.16733e-03
3.93800e+03 6.20604e-03
3.93900e+03 5.24097e-03
3.94000e+03 4.77503e-03
3.94100e+03 4.30802e-03
3.94200e+03 3.83902e-03
3.94300e+03 3.36800e-03
3.94400e+03 2.89497e-03
3.94500e+03 2.65896e-03
3.94600e+03 2.42193e-03
3.94700e+03 2.18390e-03
3.94800e+03 1.94484e-03
3.94900e+03 1.70477e-03
3.95000e+03 1.58014e-03
3.95100e+03 1.45475e-03
3.95200e+03 1.32886e-03
3.95300e+03 1.20247e-03
3.95400e+03 1.07560e-03
3.95500e+03 1.00706e-03
3.95600e+03 9.38255e-04
3.95700e+03 8.69181e-04
3.95800e+03 7.99834e-04
3.95900e+03 7.30216e-04
3.96000e+03 6.91229e-04
3.96100e+03 6.52128e-04
3.96200e+03 6.12868e-04
3.96300e+03 5.73452e-04
3.96400e+03 5.33873e-04
3.96500e+03 5.10974e-04
3.96600e+03 4.87983e-04
3.96700e+03 4.64896e-04
3.96800e+03 4.41717e-04
3.96900e+03 4.18443e-04
3.97000e+03 4.04562e-04
3.97100e+03 3.90567e-04
3.97200e+03 3.76519e-04
3.97300e+03 3.62418e-04
3.97400e+03 3.48264e-04
3.97500e+03 3.39558e-04
3.97600e+03 3.30818e-04
3.97700e+03 3.22045e-04
3.97800e+03 3.13239e-04
3.97900e+03 3.04399e-04
3.98000e+03 2.98796e-04
3.98100e+03 2.93222e-04
3.98200e+03 2.87623e-04
3.98300e+03 2.82001e-04
3.98400e+03 2.76355e-04
3.98500e+03 2.72671e-04
3.98600e+03 2.68973e-04
3.98700e+03 2.65257e-04
3.98800e+03 2.61525e-04
3.98900e+03 2.57777e-04
3.99000e+03 2.55238e-04
3.99100e+03 2.52633e-04
3.99200e+03 2.50019e-04
3.99300e+03 2.47394e-04
3.99400e+03 2.44759e-04
3.99500e+03 2.42873e-04
3.99600e+03 2.40980e-04
3.99700e+03 2.39079e-04
3.99800e+03 2.37171e-04
3.99900e+03 2.35254e-04
4.00000e+03 2.33800e-04
4.00100e+03 2.32175e-04
4.00200e+03 2.30547e-04
4.00300e+03 2.28915e-04
4.00400e+03 2.27280e-04
4.00500e+03 2.25925e-04
4.00600e+03 2.24567e-04
4.00700e+03 2.23206e-04
4.00800e+03 2.21842e-04
4.00900e+03 2.20475e-04
4.01000e+03 2.19270e-04
4.01100e+03 2.18045e-04
4.01200e+03 2.16818e-04
4.01300e+03 2.15588e-04
4.01400e+03 2.14355e-04
4.01500e+03 2.13207e-04
4.01600e+03 2.12056e-04
4.01700e+03 2.10902e-04
4.01800e+03 2.09746e-04
4.01900e+03 2.08587e-04
4.02000e+03 2.07461e-04
4.02100e+03 2.06359e-04
4.02200e+03 2.05256e-04
4.02300e+03 2.04149e-04
4.02400e+03 2.03040e-04
4.02500e+03 2.01928e-04
4.02600e+03 2.00813e-04
4.02700e+03 1.99695e-04
4.02800e+03 1.98574e-04
4.02900e+03 1.97451e-04
4.03000e+03 1.96302e-04
4.03100e+03 1.95122e-04
4.03200e+03 1.93941e-04
4.03300e+03 1.92757e-04
4.03400e+03 1.91570e-04
4.03500e+03 1.90343e-04
4.03600e+03 1.89115e-04
4.03700e+03 1.87883e-04
4.03800e+03 1.86649e-04
4.03900e+03 1.85412e-04
4.04000e+03 1.84127e-04
4.04100e+03 1.82818e-04
4.04200e+03 1.81507e-04
4.04300e+03 1.80193e-04
4.04400e+03 1.78878e-04
4.04500e+03 1.77510e-04
4.04600e+03 1.76140e-04
4.04700e+03 1.74767e-04
4.04800e+03 1.73392e-04
4.04900e+03 1.72015e-04
4.05000e+03 1.70585e-04
4.05100e+03 1.69137e-04
4.05200e+03 1.67686e-04
4.05300e+03 1.66234e-04
4.05400e+03 1.64778e-04
4.05500e+03 1.63274e-04
4.05600e+03 1.61768e-04
4.05700e+03 1.60259e-04
4.05800e+03 1.58748e-04
4.05900e+03 1.57234e-04
4.06000e+03 1.55676e-04
4.06100e+03 1.54133e-04
4.06200e+03 1.52587e-04
4.06300e+03 1.51038e-04
4.06400e+03 1.49486e-04
4.06500e+03 1.47898e-04
4.06600e+03 1.46306e-04
4.06700e+03 1.44711e-04
4.06800e+03 1.43114e-04
4.06900e+03 1.41514e-04
4.07000e+03 1.39885e-04
4.07100e+03 1.38262e-04
4.07200e+03 1.36636e-04
4.07300e+03 1.35006e-04
4.07400e+03 1.33374e-04
4.07500e+03 1.31723e-04
4.07600e+03 1.30070e-04
4.07700e+03 1.28412e-04
4.07800e+03 1.26752e-04
4.07900e+03 1.25089e-04
4.08000e+03 1.23418e-04
4.08100e+03 1.21728e-04
4.08200e+03 1.20034e-04
4.08300e+03 1.18338e-04
4.08400e+03 1.16639e-04
4.08500e+03 1.14945e-04
4.08600e+03 1.13250e-04
4.08700e+03 1.11551e-04
4.08800e+03 1.09850e-04
4.08900e+03 1.08146e-04
4.09000e+03 1.06461e-04
4.09100e+03 1.04773e-04
4.09200e+03 1.03083e-04
4.09300e+03 1.01391e-04
4.09400e+03 9.96959e-05
4.09500e+03 9.80318e-05
4.09600e+03 9.63649e-05
4.09700e+03 9.46958e-05
4.09800e+03 9.30238e-05
4.09900e+03 9.13490e-05
4.10000e+03 8.97181e-05
4.10100e+03 8.80711e-05
4.10200e+03 8.64220e-05
4.10300e+03 8.47708e-05
4.10400e+03 8.31175e-05
4.10500e+03 8.15209e-05
4.10600e+03 7.99220e-05
4.10700e+03 7.83212e-05
4.10800e+03 7.67186e-05
4.10900e+03 7.51140e-05
4.11000e+03 7.35771e-05
4.11100e+03 7.20468e-05
4.11200e+03 7.05143e-05
4.11300e+03 6.89796e-05
4.11400e+03 6.74425e-05
4.11500e+03 6.59832e-05
4.11600e+03 6.45218e-05
4.11700e+03 6.30581e-05
4.11800e+03 6.15922e-05
4.11900e+03 6.01244e-05
4.12000e+03 5.87430e-05
4.12100e+03 5.73485e-05
4.12200e+03 5.59525e-05
4.12300e+03 5.45550e-05
4.12400e+03 5.31560e-05
4.12500e+03 5.18514e-05
4.12600e+03 5.05455e-05
4.12700e+03 4.92382e-05
4.12800e+03 4.79295e-05
4.12900e+03 4.66195e-05
4.13000e+03 4.54094e-05
4.13100e+03 4.41992e-05
4.13200e+03 4.29878e-05
4.13300e+03 4.17749e-05
4.13400e+03 4.05607e-05
4.13500e+03 3.94500e-05
4.13600e+03 3.83382e-05
4.13700e+03 3.72250e-05
4.13800e+03 3.61106e-05
4.13900e+03 3.49949e-05
4.14000e+03 3.39848e-05
4.14100e+03 3.29838e-05
4.14200e+03 3.19810e-05
4.14300e+03 3.09764e-05
4.14400e+03 2.99701e-05
4.14500e+03 2.90686e-05
