# Filter name : HST/ACS_WFC.FR601N
# Description : FR601N ramp filter for HST ACS_WFC at central wavelength
# Photometric system : ACS-WFC
# FilterType : photon
# Band name : ------
# Observatory : HST
# Instrument : ACS
# Comments : Response calculated using the stsynphot python package by STScI. In particular, function stsynphot.band("acs,wfc1,fr601n#6010"). Please, take a look to stsynphot documentation and HST instrument documentation
# 
5.63700e+03 6.67056e-05
5.63800e+03 6.77729e-05
5.63900e+03 6.88841e-05
5.64000e+03 6.99955e-05
5.64100e+03 7.11091e-05
5.64200e+03 7.22229e-05
5.64300e+03 7.33372e-05
5.64400e+03 7.44928e-05
5.64500e+03 7.56487e-05
5.64600e+03 7.68049e-05
5.64700e+03 7.79612e-05
5.64800e+03 7.91179e-05
5.64900e+03 8.03134e-05
5.65000e+03 8.15092e-05
5.65100e+03 8.27025e-05
5.65200e+03 8.38960e-05
5.65300e+03 8.50896e-05
5.65400e+03 8.63191e-05
5.65500e+03 8.75486e-05
5.65600e+03 8.87784e-05
5.65700e+03 9.00084e-05
5.65800e+03 9.12384e-05
5.65900e+03 9.25011e-05
5.66000e+03 9.37639e-05
5.66100e+03 9.50293e-05
5.66200e+03 9.62950e-05
5.66300e+03 9.75612e-05
5.66400e+03 9.88561e-05
5.66500e+03 1.00151e-04
5.66600e+03 1.01447e-04
5.66700e+03 1.02743e-04
5.66800e+03 1.04039e-04
5.66900e+03 1.05360e-04
5.67000e+03 1.06682e-04
5.67100e+03 1.08008e-04
5.67200e+03 1.09335e-04
5.67300e+03 1.10662e-04
5.67400e+03 1.12011e-04
5.67500e+03 1.13360e-04
5.67600e+03 1.14710e-04
5.67700e+03 1.16060e-04
5.67800e+03 1.17410e-04
5.67900e+03 1.18778e-04
5.68000e+03 1.20146e-04
5.68100e+03 1.21518e-04
5.68200e+03 1.22891e-04
5.68300e+03 1.24264e-04
5.68400e+03 1.25650e-04
5.68500e+03 1.27037e-04
5.68600e+03 1.28425e-04
5.68700e+03 1.29813e-04
5.68800e+03 1.31201e-04
5.68900e+03 1.32599e-04
5.69000e+03 1.33998e-04
5.69100e+03 1.35386e-04
5.69200e+03 1.36774e-04
5.69300e+03 1.38163e-04
5.69400e+03 1.39557e-04
5.69500e+03 1.40952e-04
5.69600e+03 1.42346e-04
5.69700e+03 1.43741e-04
5.69800e+03 1.45136e-04
5.69900e+03 1.46532e-04
5.70000e+03 1.47929e-04
5.70100e+03 1.49339e-04
5.70200e+03 1.50749e-04
5.70300e+03 1.52159e-04
5.70400e+03 1.53567e-04
5.70500e+03 1.54976e-04
5.70600e+03 1.56385e-04
5.70700e+03 1.57795e-04
5.70800e+03 1.59205e-04
5.70900e+03 1.60609e-04
5.71000e+03 1.62014e-04
5.71100e+03 1.63408e-04
5.71200e+03 1.64802e-04
5.71300e+03 1.66197e-04
5.71400e+03 1.67582e-04
5.71500e+03 1.68968e-04
5.71600e+03 1.70354e-04
5.71700e+03 1.71741e-04
5.71800e+03 1.73127e-04
5.71900e+03 1.74501e-04
5.72000e+03 1.75875e-04
5.72100e+03 1.77221e-04
5.72200e+03 1.78568e-04
5.72300e+03 1.79915e-04
5.72400e+03 1.81245e-04
5.72500e+03 1.82574e-04
5.72600e+03 1.83905e-04
5.72700e+03 1.85234e-04
5.72800e+03 1.86564e-04
5.72900e+03 1.87875e-04
5.73000e+03 1.89186e-04
5.73100e+03 1.90537e-04
5.73200e+03 1.91888e-04
5.73300e+03 1.93240e-04
5.73400e+03 1.94571e-04
5.73500e+03 1.95903e-04
5.73600e+03 1.97235e-04
5.73700e+03 1.98567e-04
5.73800e+03 1.99901e-04
5.73900e+03 2.01211e-04
5.74000e+03 2.02522e-04
5.74100e+03 2.03795e-04
5.74200e+03 2.05069e-04
5.74300e+03 2.06342e-04
5.74400e+03 2.07591e-04
5.74500e+03 2.08839e-04
5.74600e+03 2.10088e-04
5.74700e+03 2.11337e-04
5.74800e+03 2.12586e-04
5.74900e+03 2.13809e-04
5.75000e+03 2.15033e-04
5.75100e+03 2.16311e-04
5.75200e+03 2.17591e-04
5.75300e+03 2.18871e-04
5.75400e+03 2.20125e-04
5.75500e+03 2.21381e-04
5.75600e+03 2.22637e-04
5.75700e+03 2.23895e-04
5.75800e+03 2.25152e-04
5.75900e+03 2.26385e-04
5.76000e+03 2.27619e-04
5.76100e+03 2.28799e-04
5.76200e+03 2.29979e-04
5.76300e+03 2.31160e-04
5.76400e+03 2.32316e-04
5.76500e+03 2.33473e-04
5.76600e+03 2.34630e-04
5.76700e+03 2.35787e-04
5.76800e+03 2.36944e-04
5.76900e+03 2.38079e-04
5.77000e+03 2.39215e-04
5.77100e+03 2.40397e-04
5.77200e+03 2.41579e-04
5.77300e+03 2.42762e-04
5.77400e+03 2.43928e-04
5.77500e+03 2.45094e-04
5.77600e+03 2.46260e-04
5.77700e+03 2.47427e-04
5.77800e+03 2.48595e-04
5.77900e+03 2.49750e-04
5.78000e+03 2.50905e-04
5.78100e+03 2.52029e-04
5.78200e+03 2.53152e-04
5.78300e+03 2.54277e-04
5.78400e+03 2.55394e-04
5.78500e+03 2.56512e-04
5.78600e+03 2.57631e-04
5.78700e+03 2.58749e-04
5.78800e+03 2.59867e-04
5.78900e+03 2.60989e-04
5.79000e+03 2.62110e-04
5.79100e+03 2.63251e-04
5.79200e+03 2.64392e-04
5.79300e+03 2.65534e-04
5.79400e+03 2.66691e-04
5.79500e+03 2.67847e-04
5.79600e+03 2.69003e-04
5.79700e+03 2.70161e-04
5.79800e+03 2.71319e-04
5.79900e+03 2.72507e-04
5.80000e+03 2.73695e-04
5.80100e+03 2.74843e-04
5.80200e+03 2.75990e-04
5.80300e+03 2.77138e-04
5.80400e+03 2.78335e-04
5.80500e+03 2.79533e-04
5.80600e+03 2.80729e-04
5.80700e+03 2.81927e-04
5.80800e+03 2.83125e-04
5.80900e+03 2.84399e-04
5.81000e+03 2.85672e-04
5.81100e+03 2.86999e-04
5.81200e+03 2.88326e-04
5.81300e+03 2.89654e-04
5.81400e+03 2.91092e-04
5.81500e+03 2.92531e-04
5.81600e+03 2.93972e-04
5.81700e+03 2.95412e-04
5.81800e+03 2.96853e-04
5.81900e+03 2.98451e-04
5.82000e+03 3.00050e-04
5.82100e+03 3.01639e-04
5.82200e+03 3.03228e-04
5.82300e+03 3.04818e-04
5.82400e+03 3.06626e-04
5.82500e+03 3.08435e-04
5.82600e+03 3.10243e-04
5.82700e+03 3.12053e-04
5.82800e+03 3.13863e-04
5.82900e+03 3.15974e-04
5.83000e+03 3.18085e-04
5.83100e+03 3.20163e-04
5.83200e+03 3.22243e-04
5.83300e+03 3.24322e-04
5.83400e+03 3.26811e-04
5.83500e+03 3.29300e-04
5.83600e+03 3.31791e-04
5.83700e+03 3.34280e-04
5.83800e+03 3.36771e-04
5.83900e+03 3.39821e-04
5.84000e+03 3.42872e-04
5.84100e+03 3.45940e-04
5.84200e+03 3.49010e-04
5.84300e+03 3.52080e-04
5.84400e+03 3.55918e-04
5.84500e+03 3.59756e-04
5.84600e+03 3.63595e-04
5.84700e+03 3.67435e-04
5.84800e+03 3.71278e-04
5.84900e+03 3.76174e-04
5.85000e+03 3.81071e-04
5.85100e+03 3.85944e-04
5.85200e+03 3.90817e-04
5.85300e+03 3.95691e-04
5.85400e+03 4.02023e-04
5.85500e+03 4.08355e-04
5.85600e+03 4.14688e-04
5.85700e+03 4.21023e-04
5.85800e+03 4.27358e-04
5.85900e+03 4.35725e-04
5.86000e+03 4.44092e-04
5.86100e+03 4.52525e-04
5.86200e+03 4.60962e-04
5.86300e+03 4.69403e-04
5.86400e+03 4.80702e-04
5.86500e+03 4.92006e-04
5.86600e+03 5.03315e-04
5.86700e+03 5.14628e-04
5.86800e+03 5.25947e-04
5.86900e+03 5.41328e-04
5.87000e+03 5.56716e-04
5.87100e+03 5.72023e-04
5.87200e+03 5.87332e-04
5.87300e+03 6.02643e-04
5.87400e+03 6.23784e-04
5.87500e+03 6.44926e-04
5.87600e+03 6.66073e-04
5.87700e+03 6.87221e-04
5.87800e+03 7.08372e-04
5.87900e+03 7.38000e-04
5.88000e+03 7.67632e-04
5.88100e+03 7.97358e-04
5.88200e+03 8.27094e-04
5.88300e+03 8.56840e-04
5.88400e+03 8.99092e-04
5.88500e+03 9.41360e-04
5.88600e+03 9.83642e-04
5.88700e+03 1.02594e-03
5.88800e+03 1.06825e-03
5.88900e+03 1.12928e-03
5.89000e+03 1.19032e-03
5.89100e+03 1.25144e-03
5.89200e+03 1.31259e-03
5.89300e+03 1.37376e-03
5.89400e+03 1.46339e-03
5.89500e+03 1.55306e-03
5.89600e+03 1.64277e-03
5.89700e+03 1.73252e-03
5.89800e+03 1.82231e-03
5.89900e+03 1.95609e-03
5.90000e+03 2.08993e-03
5.90100e+03 2.22359e-03
5.90200e+03 2.35727e-03
5.90300e+03 2.49099e-03
5.90400e+03 2.69386e-03
5.90500e+03 2.89677e-03
5.90600e+03 3.09973e-03
5.90700e+03 3.30274e-03
5.90800e+03 3.50579e-03
5.90900e+03 3.81954e-03
5.91000e+03 4.13335e-03
5.91100e+03 4.44705e-03
5.91200e+03 4.76081e-03
5.91300e+03 5.07460e-03
5.91400e+03 5.56859e-03
5.91500e+03 6.06268e-03
5.91600e+03 6.55682e-03
5.91700e+03 7.05105e-03
5.91800e+03 7.54535e-03
5.91900e+03 8.33749e-03
5.92000e+03 9.12976e-03
5.92100e+03 9.92365e-03
5.92200e+03 1.07179e-02
5.92300e+03 1.15125e-02
5.92400e+03 1.28046e-02
5.92500e+03 1.40972e-02
5.92600e+03 1.53905e-02
5.92700e+03 1.66843e-02
5.92800e+03 1.79788e-02
5.92900e+03 2.01017e-02
5.93000e+03 2.22256e-02
5.93100e+03 2.43488e-02
5.93200e+03 2.64728e-02
5.93300e+03 2.85975e-02
5.93400e+03 3.20653e-02
5.93500e+03 3.55343e-02
5.93600e+03 3.90044e-02
5.93700e+03 4.24758e-02
5.93800e+03 4.59483e-02
5.93900e+03 5.14473e-02
5.94000e+03 5.69483e-02
5.94100e+03 6.24494e-02
5.94200e+03 6.79522e-02
5.94300e+03 7.34565e-02
5.94400e+03 8.15732e-02
5.94500e+03 8.96922e-02
5.94600e+03 9.78134e-02
5.94700e+03 1.05937e-01
5.94800e+03 1.14063e-01
5.94900e+03 1.24602e-01
5.95000e+03 1.35144e-01
5.95100e+03 1.45696e-01
5.95200e+03 1.56251e-01
5.95300e+03 1.66810e-01
5.95400e+03 1.78130e-01
5.95500e+03 1.89454e-01
5.95600e+03 2.00782e-01
5.95700e+03 2.12114e-01
5.95800e+03 2.23451e-01
5.95900e+03 2.33039e-01
5.96000e+03 2.42630e-01
5.96100e+03 2.52241e-01
5.96200e+03 2.61857e-01
5.96300e+03 2.71478e-01
5.96400e+03 2.77833e-01
5.96500e+03 2.84191e-01
5.96600e+03 2.90551e-01
5.96700e+03 2.96916e-01
5.96800e+03 3.03284e-01
5.96900e+03 3.06655e-01
5.97000e+03 3.10027e-01
5.97100e+03 3.13370e-01
5.97200e+03 3.16714e-01
5.97300e+03 3.20059e-01
5.97400e+03 3.21525e-01
5.97500e+03 3.22990e-01
5.97600e+03 3.24456e-01
5.97700e+03 3.25922e-01
5.97800e+03 3.27389e-01
5.97900e+03 3.27946e-01
5.98000e+03 3.28502e-01
5.98100e+03 3.29044e-01
5.98200e+03 3.29587e-01
5.98300e+03 3.30129e-01
5.98400e+03 3.30313e-01
5.98500e+03 3.30496e-01
5.98600e+03 3.30680e-01
5.98700e+03 3.30864e-01
5.98800e+03 3.31048e-01
5.98900e+03 3.31118e-01
5.99000e+03 3.31188e-01
5.99100e+03 3.31276e-01
5.99200e+03 3.31364e-01
5.99300e+03 3.31453e-01
5.99400e+03 3.31513e-01
5.99500e+03 3.31574e-01
5.99600e+03 3.31634e-01
5.99700e+03 3.31695e-01
5.99800e+03 3.31756e-01
5.99900e+03 3.31812e-01
6.00000e+03 3.31868e-01
6.00100e+03 3.31921e-01
6.00200e+03 3.31974e-01
6.00300e+03 3.32027e-01
6.00400e+03 3.32079e-01
6.00500e+03 3.32131e-01
6.00600e+03 3.32183e-01
6.00700e+03 3.32236e-01
6.00800e+03 3.32288e-01
6.00900e+03 3.32340e-01
6.01000e+03 3.32392e-01
6.01100e+03 3.32423e-01
6.01200e+03 3.32453e-01
6.01300e+03 3.32484e-01
6.01400e+03 3.32514e-01
6.01500e+03 3.32544e-01
6.01600e+03 3.32575e-01
6.01700e+03 3.32606e-01
6.01800e+03 3.32636e-01
6.01900e+03 3.32665e-01
6.02000e+03 3.32695e-01
6.02100e+03 3.32757e-01
6.02200e+03 3.32819e-01
6.02300e+03 3.32881e-01
6.02400e+03 3.32935e-01
6.02500e+03 3.32989e-01
6.02600e+03 3.33044e-01
6.02700e+03 3.33099e-01
6.02800e+03 3.33153e-01
6.02900e+03 3.33167e-01
6.03000e+03 3.33182e-01
6.03100e+03 3.33217e-01
6.03200e+03 3.33253e-01
6.03300e+03 3.33288e-01
6.03400e+03 3.33172e-01
6.03500e+03 3.33056e-01
6.03600e+03 3.32939e-01
6.03700e+03 3.32823e-01
6.03800e+03 3.32706e-01
6.03900e+03 3.32142e-01
6.04000e+03 3.31576e-01
6.04100e+03 3.30957e-01
6.04200e+03 3.30339e-01
6.04300e+03 3.29720e-01
6.04400e+03 3.28018e-01
6.04500e+03 3.26315e-01
6.04600e+03 3.24613e-01
6.04700e+03 3.22911e-01
6.04800e+03 3.21207e-01
6.04900e+03 3.17388e-01
6.05000e+03 3.13568e-01
6.05100e+03 3.09764e-01
6.05200e+03 3.05959e-01
6.05300e+03 3.02154e-01
6.05400e+03 2.95186e-01
6.05500e+03 2.88217e-01
6.05600e+03 2.81245e-01
6.05700e+03 2.74271e-01
6.05800e+03 2.67296e-01
6.05900e+03 2.57155e-01
6.06000e+03 2.47011e-01
6.06100e+03 2.36869e-01
6.06200e+03 2.26723e-01
6.06300e+03 2.16575e-01
6.06400e+03 2.05056e-01
6.06500e+03 1.93533e-01
6.06600e+03 1.82006e-01
6.06700e+03 1.70475e-01
6.06800e+03 1.58941e-01
6.06900e+03 1.48584e-01
6.07000e+03 1.38224e-01
6.07100e+03 1.27853e-01
6.07200e+03 1.17479e-01
6.07300e+03 1.07104e-01
6.07400e+03 9.93575e-02
6.07500e+03 9.16099e-02
6.07600e+03 8.38601e-02
6.07700e+03 7.61087e-02
6.07800e+03 6.83557e-02
6.07900e+03 6.32148e-02
6.08000e+03 5.80727e-02
6.08100e+03 5.29335e-02
6.08200e+03 4.77923e-02
6.08300e+03 4.26493e-02
6.08400e+03 3.94425e-02
6.08500e+03 3.62346e-02
6.08600e+03 3.30254e-02
6.08700e+03 2.98150e-02
6.08800e+03 2.66036e-02
6.08900e+03 2.46462e-02
6.09000e+03 2.26881e-02
6.09100e+03 2.07284e-02
6.09200e+03 1.87681e-02
6.09300e+03 1.68073e-02
6.09400e+03 1.56128e-02
6.09500e+03 1.44179e-02
6.09600e+03 1.32228e-02
6.09700e+03 1.20273e-02
6.09800e+03 1.08314e-02
6.09900e+03 1.00950e-02
6.10000e+03 9.35840e-03
6.10100e+03 8.62143e-03
6.10200e+03 7.88433e-03
6.10300e+03 7.14700e-03
6.10400e+03 6.68557e-03
6.10500e+03 6.22401e-03
6.10600e+03 5.76234e-03
6.10700e+03 5.30057e-03
6.10800e+03 4.83868e-03
6.10900e+03 4.54432e-03
6.11000e+03 4.24990e-03
6.11100e+03 3.95579e-03
6.11200e+03 3.66155e-03
6.11300e+03 3.36718e-03
6.11400e+03 3.17616e-03
6.11500e+03 2.98505e-03
6.11600e+03 2.79386e-03
6.11700e+03 2.60258e-03
6.11800e+03 2.41123e-03
6.11900e+03 2.28478e-03
6.12000e+03 2.15829e-03
6.12100e+03 2.03159e-03
6.12200e+03 1.90486e-03
6.12300e+03 1.77808e-03
6.12400e+03 1.69284e-03
6.12500e+03 1.60756e-03
6.12600e+03 1.52226e-03
6.12700e+03 1.43693e-03
6.12800e+03 1.35158e-03
6.12900e+03 1.29323e-03
6.13000e+03 1.23486e-03
6.13100e+03 1.17650e-03
6.13200e+03 1.11811e-03
6.13300e+03 1.05971e-03
6.13400e+03 1.01916e-03
6.13500e+03 9.78599e-04
6.13600e+03 9.38024e-04
6.13700e+03 8.97436e-04
6.13800e+03 8.56832e-04
6.13900e+03 8.28223e-04
6.14000e+03 7.99602e-04
6.14100e+03 7.70982e-04
6.14200e+03 7.42351e-04
6.14300e+03 7.13711e-04
6.14400e+03 6.93239e-04
6.14500e+03 6.72760e-04
6.14600e+03 6.52274e-04
6.14700e+03 6.31780e-04
6.14800e+03 6.11279e-04
6.14900e+03 5.96419e-04
6.15000e+03 5.81553e-04
6.15100e+03 5.66641e-04
6.15200e+03 5.51725e-04
6.15300e+03 5.36806e-04
6.15400e+03 5.25831e-04
6.15500e+03 5.14853e-04
6.15600e+03 5.03872e-04
6.15700e+03 4.92890e-04
6.15800e+03 4.81905e-04
6.15900e+03 4.73706e-04
6.16000e+03 4.65505e-04
6.16100e+03 4.57345e-04
6.16200e+03 4.49182e-04
6.16300e+03 4.41017e-04
6.16400e+03 4.34837e-04
6.16500e+03 4.28655e-04
6.16600e+03 4.22471e-04
6.16700e+03 4.16283e-04
6.16800e+03 4.10093e-04
6.16900e+03 4.05333e-04
6.17000e+03 4.00572e-04
6.17100e+03 3.95801e-04
6.17200e+03 3.91028e-04
6.17300e+03 3.86253e-04
6.17400e+03 3.82515e-04
6.17500e+03 3.78775e-04
6.17600e+03 3.75034e-04
6.17700e+03 3.71292e-04
6.17800e+03 3.67548e-04
6.17900e+03 3.64560e-04
6.18000e+03 3.61570e-04
6.18100e+03 3.58572e-04
6.18200e+03 3.55574e-04
6.18300e+03 3.52575e-04
6.18400e+03 3.50128e-04
6.18500e+03 3.47680e-04
6.18600e+03 3.45233e-04
6.18700e+03 3.42783e-04
6.18800e+03 3.40333e-04
6.18900e+03 3.38287e-04
6.19000e+03 3.36241e-04
6.19100e+03 3.34202e-04
6.19200e+03 3.32164e-04
6.19300e+03 3.30124e-04
6.19400e+03 3.28380e-04
6.19500e+03 3.26634e-04
6.19600e+03 3.24888e-04
6.19700e+03 3.23143e-04
6.19800e+03 3.21395e-04
6.19900e+03 3.19862e-04
6.20000e+03 3.18329e-04
6.20100e+03 3.16757e-04
6.20200e+03 3.15185e-04
6.20300e+03 3.13612e-04
6.20400e+03 3.12194e-04
6.20500e+03 3.10775e-04
6.20600e+03 3.09356e-04
6.20700e+03 3.07937e-04
6.20800e+03 3.06518e-04
6.20900e+03 3.05207e-04
6.21000e+03 3.03896e-04
6.21100e+03 3.02588e-04
6.21200e+03 3.01277e-04
6.21300e+03 2.99968e-04
6.21400e+03 2.98731e-04
6.21500e+03 2.97495e-04
6.21600e+03 2.96258e-04
6.21700e+03 2.95021e-04
6.21800e+03 2.93785e-04
6.21900e+03 2.92595e-04
6.22000e+03 2.91406e-04
6.22100e+03 2.90246e-04
6.22200e+03 2.89085e-04
6.22300e+03 2.87925e-04
6.22400e+03 2.86790e-04
6.22500e+03 2.85657e-04
6.22600e+03 2.84522e-04
6.22700e+03 2.83387e-04
6.22800e+03 2.82251e-04
6.22900e+03 2.81127e-04
6.23000e+03 2.80002e-04
6.23100e+03 2.78850e-04
6.23200e+03 2.77697e-04
6.23300e+03 2.76543e-04
6.23400e+03 2.75390e-04
6.23500e+03 2.74237e-04
6.23600e+03 2.73083e-04
6.23700e+03 2.71929e-04
6.23800e+03 2.70775e-04
6.23900e+03 2.69612e-04
6.24000e+03 2.68448e-04
6.24100e+03 2.67299e-04
6.24200e+03 2.66149e-04
6.24300e+03 2.64999e-04
6.24400e+03 2.63832e-04
6.24500e+03 2.62666e-04
6.24600e+03 2.61499e-04
6.24700e+03 2.60332e-04
6.24800e+03 2.59165e-04
6.24900e+03 2.57976e-04
6.25000e+03 2.56788e-04
6.25100e+03 2.55593e-04
6.25200e+03 2.54397e-04
6.25300e+03 2.53202e-04
6.25400e+03 2.51981e-04
6.25500e+03 2.50761e-04
6.25600e+03 2.49541e-04
6.25700e+03 2.48320e-04
6.25800e+03 2.47099e-04
6.25900e+03 2.45851e-04
6.26000e+03 2.44603e-04
6.26100e+03 2.43363e-04
6.26200e+03 2.42121e-04
6.26300e+03 2.40879e-04
6.26400e+03 2.39610e-04
6.26500e+03 2.38339e-04
6.26600e+03 2.37070e-04
6.26700e+03 2.35799e-04
6.26800e+03 2.34528e-04
6.26900e+03 2.33229e-04
6.27000e+03 2.31930e-04
6.27100e+03 2.30647e-04
6.27200e+03 2.29364e-04
6.27300e+03 2.28080e-04
6.27400e+03 2.26768e-04
6.27500e+03 2.25456e-04
6.27600e+03 2.24142e-04
6.27700e+03 2.22829e-04
6.27800e+03 2.21515e-04
6.27900e+03 2.20174e-04
6.28000e+03 2.18833e-04
6.28100e+03 2.17462e-04
6.28200e+03 2.16090e-04
6.28300e+03 2.14719e-04
6.28400e+03 2.13323e-04
6.28500e+03 2.11926e-04
6.28600e+03 2.10529e-04
6.28700e+03 2.09133e-04
6.28800e+03 2.07735e-04
6.28900e+03 2.06316e-04
6.29000e+03 2.04896e-04
6.29100e+03 2.03481e-04
6.29200e+03 2.02067e-04
6.29300e+03 2.00652e-04
6.29400e+03 1.99217e-04
6.29500e+03 1.97782e-04
6.29600e+03 1.96346e-04
6.29700e+03 1.94910e-04
6.29800e+03 1.93474e-04
6.29900e+03 1.92020e-04
6.30000e+03 1.90567e-04
6.30100e+03 1.89110e-04
6.30200e+03 1.87654e-04
6.30300e+03 1.86197e-04
6.30400e+03 1.84727e-04
6.30500e+03 1.83256e-04
6.30600e+03 1.81785e-04
6.30700e+03 1.80314e-04
6.30800e+03 1.78842e-04
6.30900e+03 1.77360e-04
6.31000e+03 1.75878e-04
6.31100e+03 1.74408e-04
6.31200e+03 1.72937e-04
6.31300e+03 1.71466e-04
6.31400e+03 1.69988e-04
6.31500e+03 1.68510e-04
6.31600e+03 1.67031e-04
6.31700e+03 1.65552e-04
6.31800e+03 1.64072e-04
6.31900e+03 1.62590e-04
6.32000e+03 1.61107e-04
6.32100e+03 1.59624e-04
6.32200e+03 1.58140e-04
6.32300e+03 1.56656e-04
6.32400e+03 1.55173e-04
6.32500e+03 1.53690e-04
6.32600e+03 1.52207e-04
6.32700e+03 1.50723e-04
6.32800e+03 1.49238e-04
6.32900e+03 1.47760e-04
6.33000e+03 1.46281e-04
6.33100e+03 1.44805e-04
6.33200e+03 1.43327e-04
6.33300e+03 1.41850e-04
6.33400e+03 1.40383e-04
6.33500e+03 1.38915e-04
6.33600e+03 1.37447e-04
6.33700e+03 1.35978e-04
6.33800e+03 1.34509e-04
6.33900e+03 1.33054e-04
6.34000e+03 1.31600e-04
6.34100e+03 1.30125e-04
6.34200e+03 1.28651e-04
6.34300e+03 1.27177e-04
6.34400e+03 1.25723e-04
6.34500e+03 1.24268e-04
6.34600e+03 1.22814e-04
6.34700e+03 1.21359e-04
6.34800e+03 1.19905e-04
6.34900e+03 1.18474e-04
6.35000e+03 1.17044e-04
6.35100e+03 1.15627e-04
6.35200e+03 1.14209e-04
6.35300e+03 1.12791e-04
6.35400e+03 1.11401e-04
6.35500e+03 1.10011e-04
6.35600e+03 1.08620e-04
6.35700e+03 1.07229e-04
6.35800e+03 1.05837e-04
6.35900e+03 1.04478e-04
6.36000e+03 1.03119e-04
6.36100e+03 1.01753e-04
6.36200e+03 1.00386e-04
6.36300e+03 9.90203e-05
6.36400e+03 9.76901e-05
6.36500e+03 9.63597e-05
6.36600e+03 9.50292e-05
6.36700e+03 9.36985e-05
6.36800e+03 9.23674e-05
6.36900e+03 9.10763e-05
6.37000e+03 8.97849e-05
6.37100e+03 8.85043e-05
6.37200e+03 8.72233e-05
6.37300e+03 8.59416e-05
6.37400e+03 8.47028e-05
6.37500e+03 8.34636e-05
6.37600e+03 8.22238e-05
6.37700e+03 8.09834e-05
6.37800e+03 7.97426e-05
6.37900e+03 7.85477e-05
6.38000e+03 7.73523e-05
6.38100e+03 7.61518e-05
6.38200e+03 7.49510e-05
6.38300e+03 7.37499e-05
6.38400e+03 7.25976e-05
6.38500e+03 7.14448e-05
6.38600e+03 7.02917e-05
6.38700e+03 6.91383e-05
6.38800e+03 6.79846e-05
6.38900e+03 6.68820e-05
