# Filter name : HST/ACS_WFC.FR716N
# Description : FR716N ramp filter for HST ACS_WFC at central wavelength
# Photometric system : ACS-WFC
# FilterType : photon
# Band name : ------
# Observatory : HST
# Instrument : ACS
# Comments : Response calculated using the stsynphot python package by STScI. In particular, function stsynphot.band("acs,wfc1,fr716n#7160"). Please, take a look to stsynphot documentation and HST instrument documentation
# 
6.71900e+03 7.83251e-05
6.72000e+03 7.93815e-05
6.72100e+03 8.04310e-05
6.72200e+03 8.14805e-05
6.72300e+03 8.25301e-05
6.72400e+03 8.36122e-05
6.72500e+03 8.46945e-05
6.72600e+03 8.57770e-05
6.72700e+03 8.68595e-05
6.72800e+03 8.79419e-05
6.72900e+03 8.90554e-05
6.73000e+03 9.01688e-05
6.73100e+03 9.12748e-05
6.73200e+03 9.23809e-05
6.73300e+03 9.34868e-05
6.73400e+03 9.46214e-05
6.73500e+03 9.57557e-05
6.73600e+03 9.68899e-05
6.73700e+03 9.80241e-05
6.73800e+03 9.91582e-05
6.73900e+03 1.00319e-04
6.74000e+03 1.01479e-04
6.74100e+03 1.02645e-04
6.74200e+03 1.03810e-04
6.74300e+03 1.04975e-04
6.74400e+03 1.06166e-04
6.74500e+03 1.07355e-04
6.74600e+03 1.08545e-04
6.74700e+03 1.09735e-04
6.74800e+03 1.10925e-04
6.74900e+03 1.12136e-04
6.75000e+03 1.13348e-04
6.75100e+03 1.14571e-04
6.75200e+03 1.15794e-04
6.75300e+03 1.17017e-04
6.75400e+03 1.18260e-04
6.75500e+03 1.19503e-04
6.75600e+03 1.20746e-04
6.75700e+03 1.21989e-04
6.75800e+03 1.23233e-04
6.75900e+03 1.24494e-04
6.76000e+03 1.25755e-04
6.76100e+03 1.26990e-04
6.76200e+03 1.28224e-04
6.76300e+03 1.29457e-04
6.76400e+03 1.30705e-04
6.76500e+03 1.31952e-04
6.76600e+03 1.33200e-04
6.76700e+03 1.34446e-04
6.76800e+03 1.35693e-04
6.76900e+03 1.36950e-04
6.77000e+03 1.38208e-04
6.77100e+03 1.39487e-04
6.77200e+03 1.40766e-04
6.77300e+03 1.42045e-04
6.77400e+03 1.43333e-04
6.77500e+03 1.44621e-04
6.77600e+03 1.45909e-04
6.77700e+03 1.47198e-04
6.77800e+03 1.48486e-04
6.77900e+03 1.49781e-04
6.78000e+03 1.51075e-04
6.78100e+03 1.52368e-04
6.78200e+03 1.53661e-04
6.78300e+03 1.54954e-04
6.78400e+03 1.56251e-04
6.78500e+03 1.57547e-04
6.78600e+03 1.58844e-04
6.78700e+03 1.60141e-04
6.78800e+03 1.61437e-04
6.78900e+03 1.62735e-04
6.79000e+03 1.64032e-04
6.79100e+03 1.65321e-04
6.79200e+03 1.66610e-04
6.79300e+03 1.67899e-04
6.79400e+03 1.69186e-04
6.79500e+03 1.70472e-04
6.79600e+03 1.71759e-04
6.79700e+03 1.73046e-04
6.79800e+03 1.74332e-04
6.79900e+03 1.75615e-04
6.80000e+03 1.76897e-04
6.80100e+03 1.78177e-04
6.80200e+03 1.79458e-04
6.80300e+03 1.80738e-04
6.80400e+03 1.82013e-04
6.80500e+03 1.83286e-04
6.80600e+03 1.84559e-04
6.80700e+03 1.85833e-04
6.80800e+03 1.87107e-04
6.80900e+03 1.88371e-04
6.81000e+03 1.89635e-04
6.81100e+03 1.90893e-04
6.81200e+03 1.92151e-04
6.81300e+03 1.93409e-04
6.81400e+03 1.94655e-04
6.81500e+03 1.95902e-04
6.81600e+03 1.97148e-04
6.81700e+03 1.98394e-04
6.81800e+03 1.99639e-04
6.81900e+03 2.00872e-04
6.82000e+03 2.02104e-04
6.82100e+03 2.03354e-04
6.82200e+03 2.04603e-04
6.82300e+03 2.05852e-04
6.82400e+03 2.07087e-04
6.82500e+03 2.08322e-04
6.82600e+03 2.09557e-04
6.82700e+03 2.10791e-04
6.82800e+03 2.12026e-04
6.82900e+03 2.13244e-04
6.83000e+03 2.14462e-04
6.83100e+03 2.15675e-04
6.83200e+03 2.16889e-04
6.83300e+03 2.18102e-04
6.83400e+03 2.19298e-04
6.83500e+03 2.20493e-04
6.83600e+03 2.21688e-04
6.83700e+03 2.22884e-04
6.83800e+03 2.24079e-04
6.83900e+03 2.25255e-04
6.84000e+03 2.26432e-04
6.84100e+03 2.27587e-04
6.84200e+03 2.28742e-04
6.84300e+03 2.29897e-04
6.84400e+03 2.31032e-04
6.84500e+03 2.32167e-04
6.84600e+03 2.33301e-04
6.84700e+03 2.34435e-04
6.84800e+03 2.35570e-04
6.84900e+03 2.36683e-04
6.85000e+03 2.37795e-04
6.85100e+03 2.38927e-04
6.85200e+03 2.40058e-04
6.85300e+03 2.41189e-04
6.85400e+03 2.42299e-04
6.85500e+03 2.43409e-04
6.85600e+03 2.44519e-04
6.85700e+03 2.45629e-04
6.85800e+03 2.46739e-04
6.85900e+03 2.47828e-04
6.86000e+03 2.48917e-04
6.86100e+03 2.50022e-04
6.86200e+03 2.51127e-04
6.86300e+03 2.52232e-04
6.86400e+03 2.53317e-04
6.86500e+03 2.54402e-04
6.86600e+03 2.55486e-04
6.86700e+03 2.56572e-04
6.86800e+03 2.57657e-04
6.86900e+03 2.58722e-04
6.87000e+03 2.59788e-04
6.87100e+03 2.60834e-04
6.87200e+03 2.61880e-04
6.87300e+03 2.62926e-04
6.87400e+03 2.63955e-04
6.87500e+03 2.64982e-04
6.87600e+03 2.66011e-04
6.87700e+03 2.67039e-04
6.87800e+03 2.68066e-04
6.87900e+03 2.69078e-04
6.88000e+03 2.70090e-04
6.88100e+03 2.71109e-04
6.88200e+03 2.72128e-04
6.88300e+03 2.73147e-04
6.88400e+03 2.74153e-04
6.88500e+03 2.75159e-04
6.88600e+03 2.76165e-04
6.88700e+03 2.77170e-04
6.88800e+03 2.78176e-04
6.88900e+03 2.79172e-04
6.89000e+03 2.80169e-04
6.89100e+03 2.81149e-04
6.89200e+03 2.82129e-04
6.89300e+03 2.83110e-04
6.89400e+03 2.84085e-04
6.89500e+03 2.85060e-04
6.89600e+03 2.86035e-04
6.89700e+03 2.87011e-04
6.89800e+03 2.87985e-04
6.89900e+03 2.88962e-04
6.90000e+03 2.89938e-04
6.90100e+03 2.90921e-04
6.90200e+03 2.91904e-04
6.90300e+03 2.92887e-04
6.90400e+03 2.93878e-04
6.90500e+03 2.94870e-04
6.90600e+03 2.95861e-04
6.90700e+03 2.96853e-04
6.90800e+03 2.97844e-04
6.90900e+03 2.98854e-04
6.91000e+03 2.99864e-04
6.91100e+03 3.00918e-04
6.91200e+03 3.01972e-04
6.91300e+03 3.03026e-04
6.91400e+03 3.04111e-04
6.91500e+03 3.05195e-04
6.91600e+03 3.06281e-04
6.91700e+03 3.07366e-04
6.91800e+03 3.08451e-04
6.91900e+03 3.09582e-04
6.92000e+03 3.10712e-04
6.92100e+03 3.11793e-04
6.92200e+03 3.12873e-04
6.92300e+03 3.13953e-04
6.92400e+03 3.15097e-04
6.92500e+03 3.16240e-04
6.92600e+03 3.17384e-04
6.92700e+03 3.18526e-04
6.92800e+03 3.19669e-04
6.92900e+03 3.20899e-04
6.93000e+03 3.22128e-04
6.93100e+03 3.23345e-04
6.93200e+03 3.24562e-04
6.93300e+03 3.25778e-04
6.93400e+03 3.27111e-04
6.93500e+03 3.28443e-04
6.93600e+03 3.29776e-04
6.93700e+03 3.31107e-04
6.93800e+03 3.32438e-04
6.93900e+03 3.33924e-04
6.94000e+03 3.35409e-04
6.94100e+03 3.36935e-04
6.94200e+03 3.38460e-04
6.94300e+03 3.39985e-04
6.94400e+03 3.41713e-04
6.94500e+03 3.43441e-04
6.94600e+03 3.45168e-04
6.94700e+03 3.46897e-04
6.94800e+03 3.48624e-04
6.94900e+03 3.50617e-04
6.95000e+03 3.52609e-04
6.95100e+03 3.54543e-04
6.95200e+03 3.56475e-04
6.95300e+03 3.58407e-04
6.95400e+03 3.60683e-04
6.95500e+03 3.62959e-04
6.95600e+03 3.65233e-04
6.95700e+03 3.67507e-04
6.95800e+03 3.69781e-04
6.95900e+03 3.72503e-04
6.96000e+03 3.75223e-04
6.96100e+03 3.77951e-04
6.96200e+03 3.80679e-04
6.96300e+03 3.83407e-04
6.96400e+03 3.86719e-04
6.96500e+03 3.90029e-04
6.96600e+03 3.93340e-04
6.96700e+03 3.96649e-04
6.96800e+03 3.99957e-04
6.96900e+03 4.04030e-04
6.97000e+03 4.08102e-04
6.97100e+03 4.12207e-04
6.97200e+03 4.16311e-04
6.97300e+03 4.20415e-04
6.97400e+03 4.25524e-04
6.97500e+03 4.30632e-04
6.97600e+03 4.35742e-04
6.97700e+03 4.40847e-04
6.97800e+03 4.45956e-04
6.97900e+03 4.52389e-04
6.98000e+03 4.58822e-04
6.98100e+03 4.65305e-04
6.98200e+03 4.71787e-04
6.98300e+03 4.78270e-04
6.98400e+03 4.86518e-04
6.98500e+03 4.94767e-04
6.98600e+03 5.03016e-04
6.98700e+03 5.11266e-04
6.98800e+03 5.19518e-04
6.98900e+03 5.30130e-04
6.99000e+03 5.40744e-04
6.99100e+03 5.51315e-04
6.99200e+03 5.61885e-04
6.99300e+03 5.72453e-04
6.99400e+03 5.86202e-04
6.99500e+03 5.99949e-04
6.99600e+03 6.13696e-04
6.99700e+03 6.27441e-04
6.99800e+03 6.41187e-04
6.99900e+03 6.59250e-04
7.00000e+03 6.77313e-04
7.00100e+03 6.95295e-04
7.00200e+03 7.13272e-04
7.00300e+03 7.31244e-04
7.00400e+03 7.55128e-04
7.00500e+03 7.79003e-04
7.00600e+03 8.02871e-04
7.00700e+03 8.26732e-04
7.00800e+03 8.50587e-04
7.00900e+03 8.82615e-04
7.01000e+03 9.14632e-04
7.01100e+03 9.46686e-04
7.01200e+03 9.78739e-04
7.01300e+03 1.01078e-03
7.01400e+03 1.05424e-03
7.01500e+03 1.09770e-03
7.01600e+03 1.14115e-03
7.01700e+03 1.18458e-03
7.01800e+03 1.22801e-03
7.01900e+03 1.28758e-03
7.02000e+03 1.34713e-03
7.02100e+03 1.40674e-03
7.02200e+03 1.46635e-03
7.02300e+03 1.52594e-03
7.02400e+03 1.60861e-03
7.02500e+03 1.69126e-03
7.02600e+03 1.77391e-03
7.02700e+03 1.85655e-03
7.02800e+03 1.93918e-03
7.02900e+03 2.05519e-03
7.03000e+03 2.17119e-03
7.03100e+03 2.28718e-03
7.03200e+03 2.40315e-03
7.03300e+03 2.51910e-03
7.03400e+03 2.68399e-03
7.03500e+03 2.84885e-03
7.03600e+03 3.01371e-03
7.03700e+03 3.17852e-03
7.03800e+03 3.34333e-03
7.03900e+03 3.58080e-03
7.04000e+03 3.81823e-03
7.04100e+03 4.05537e-03
7.04200e+03 4.29246e-03
7.04300e+03 4.52949e-03
7.04400e+03 4.87578e-03
7.04500e+03 5.22199e-03
7.04600e+03 5.56811e-03
7.04700e+03 5.91415e-03
7.04800e+03 6.26009e-03
7.04900e+03 6.77253e-03
7.05000e+03 7.28482e-03
7.05100e+03 7.79723e-03
7.05200e+03 8.30954e-03
7.05300e+03 8.82174e-03
7.05400e+03 9.59049e-03
7.05500e+03 1.03591e-02
7.05600e+03 1.11276e-02
7.05700e+03 1.18959e-02
7.05800e+03 1.26640e-02
7.05900e+03 1.38306e-02
7.06000e+03 1.49970e-02
7.06100e+03 1.61618e-02
7.06200e+03 1.73261e-02
7.06300e+03 1.84901e-02
7.06400e+03 2.02732e-02
7.06500e+03 2.20557e-02
7.06600e+03 2.38375e-02
7.06700e+03 2.56187e-02
7.06800e+03 2.73992e-02
7.06900e+03 3.01318e-02
7.07000e+03 3.28634e-02
7.07100e+03 3.55982e-02
7.07200e+03 3.83326e-02
7.07300e+03 4.10667e-02
7.07400e+03 4.52194e-02
7.07500e+03 4.93716e-02
7.07600e+03 5.35232e-02
7.07700e+03 5.76742e-02
7.07800e+03 6.18248e-02
7.07900e+03 6.79449e-02
7.08000e+03 7.40643e-02
7.08100e+03 8.01827e-02
7.08200e+03 8.63003e-02
7.08300e+03 9.24171e-02
7.08400e+03 1.00918e-01
7.08500e+03 1.09418e-01
7.08600e+03 1.17917e-01
7.08700e+03 1.26414e-01
7.08800e+03 1.34911e-01
7.08900e+03 1.45615e-01
7.09000e+03 1.56317e-01
7.09100e+03 1.66998e-01
7.09200e+03 1.77674e-01
7.09300e+03 1.88347e-01
7.09400e+03 2.00026e-01
7.09500e+03 2.11701e-01
7.09600e+03 2.23371e-01
7.09700e+03 2.35037e-01
7.09800e+03 2.46698e-01
7.09900e+03 2.57400e-01
7.10000e+03 2.68098e-01
7.10100e+03 2.78804e-01
7.10200e+03 2.89507e-01
7.10300e+03 3.00207e-01
7.10400e+03 3.08318e-01
7.10500e+03 3.16426e-01
7.10600e+03 3.24533e-01
7.10700e+03 3.32636e-01
7.10800e+03 3.40737e-01
7.10900e+03 3.45843e-01
7.11000e+03 3.50947e-01
7.11100e+03 3.56075e-01
7.11200e+03 3.61203e-01
7.11300e+03 3.66330e-01
7.11400e+03 3.69077e-01
7.11500e+03 3.71824e-01
7.11600e+03 3.74569e-01
7.11700e+03 3.77315e-01
7.11800e+03 3.80060e-01
7.11900e+03 3.81325e-01
7.12000e+03 3.82590e-01
7.12100e+03 3.83870e-01
7.12200e+03 3.85150e-01
7.12300e+03 3.86430e-01
7.12400e+03 3.86942e-01
7.12500e+03 3.87453e-01
7.12600e+03 3.87964e-01
7.12700e+03 3.88475e-01
7.12800e+03 3.88986e-01
7.12900e+03 3.89154e-01
7.13000e+03 3.89322e-01
7.13100e+03 3.89460e-01
7.13200e+03 3.89598e-01
7.13300e+03 3.89735e-01
7.13400e+03 3.89742e-01
7.13500e+03 3.89749e-01
7.13600e+03 3.89755e-01
7.13700e+03 3.89762e-01
7.13800e+03 3.89769e-01
7.13900e+03 3.89734e-01
7.14000e+03 3.89699e-01
7.14100e+03 3.89661e-01
7.14200e+03 3.89623e-01
7.14300e+03 3.89584e-01
7.14400e+03 3.89537e-01
7.14500e+03 3.89488e-01
7.14600e+03 3.89440e-01
7.14700e+03 3.89391e-01
7.14800e+03 3.89343e-01
7.14900e+03 3.89293e-01
7.15000e+03 3.89242e-01
7.15100e+03 3.89174e-01
7.15200e+03 3.89105e-01
7.15300e+03 3.89036e-01
7.15400e+03 3.88967e-01
7.15500e+03 3.88898e-01
7.15600e+03 3.88828e-01
7.15700e+03 3.88760e-01
7.15800e+03 3.88690e-01
7.15900e+03 3.88620e-01
7.16000e+03 3.88551e-01
7.16100e+03 3.88539e-01
7.16200e+03 3.88527e-01
7.16300e+03 3.88514e-01
7.16400e+03 3.88502e-01
7.16500e+03 3.88490e-01
7.16600e+03 3.88478e-01
7.16700e+03 3.88465e-01
7.16800e+03 3.88451e-01
7.16900e+03 3.88439e-01
7.17000e+03 3.88426e-01
7.17100e+03 3.88383e-01
7.17200e+03 3.88337e-01
7.17300e+03 3.88294e-01
7.17400e+03 3.88247e-01
7.17500e+03 3.88200e-01
7.17600e+03 3.88153e-01
7.17700e+03 3.88106e-01
7.17800e+03 3.88059e-01
7.17900e+03 3.87997e-01
7.18000e+03 3.87936e-01
7.18100e+03 3.87880e-01
7.18200e+03 3.87824e-01
7.18300e+03 3.87769e-01
7.18400e+03 3.87658e-01
7.18500e+03 3.87549e-01
7.18600e+03 3.87440e-01
7.18700e+03 3.87330e-01
7.18800e+03 3.87220e-01
7.18900e+03 3.86948e-01
7.19000e+03 3.86677e-01
7.19100e+03 3.86397e-01
7.19200e+03 3.86117e-01
7.19300e+03 3.85836e-01
7.19400e+03 3.85149e-01
7.19500e+03 3.84461e-01
7.19600e+03 3.83774e-01
7.19700e+03 3.83086e-01
7.19800e+03 3.82399e-01
7.19900e+03 3.80831e-01
7.20000e+03 3.79264e-01
7.20100e+03 3.77688e-01
7.20200e+03 3.76112e-01
7.20300e+03 3.74536e-01
7.20400e+03 3.71332e-01
7.20500e+03 3.68129e-01
7.20600e+03 3.64927e-01
7.20700e+03 3.61726e-01
7.20800e+03 3.58526e-01
7.20900e+03 3.52830e-01
7.21000e+03 3.47135e-01
7.21100e+03 3.41418e-01
7.21200e+03 3.35704e-01
7.21300e+03 3.29992e-01
7.21400e+03 3.21324e-01
7.21500e+03 3.12660e-01
7.21600e+03 3.04000e-01
7.21700e+03 2.95343e-01
7.21800e+03 2.86691e-01
7.21900e+03 2.75711e-01
7.22000e+03 2.64736e-01
7.22100e+03 2.53766e-01
7.22200e+03 2.42800e-01
7.22300e+03 2.31839e-01
7.22400e+03 2.20300e-01
7.22500e+03 2.08764e-01
7.22600e+03 1.97234e-01
7.22700e+03 1.85709e-01
7.22800e+03 1.74189e-01
7.22900e+03 1.63967e-01
7.23000e+03 1.53750e-01
7.23100e+03 1.43548e-01
7.23200e+03 1.33349e-01
7.23300e+03 1.23153e-01
7.23400e+03 1.15247e-01
7.23500e+03 1.07344e-01
7.23600e+03 9.94426e-02
7.23700e+03 9.15432e-02
7.23800e+03 8.36460e-02
7.23900e+03 7.80550e-02
7.24000e+03 7.24653e-02
7.24100e+03 6.68767e-02
7.24200e+03 6.12899e-02
7.24300e+03 5.57047e-02
7.24400e+03 5.19513e-02
7.24500e+03 4.81989e-02
7.24600e+03 4.44478e-02
7.24700e+03 4.06977e-02
7.24800e+03 3.69486e-02
7.24900e+03 3.44895e-02
7.25000e+03 3.20312e-02
7.25100e+03 2.95715e-02
7.25200e+03 2.71128e-02
7.25300e+03 2.46552e-02
7.25400e+03 2.30533e-02
7.25500e+03 2.14520e-02
7.25600e+03 1.98514e-02
7.25700e+03 1.82515e-02
7.25800e+03 1.66522e-02
7.25900e+03 1.56057e-02
7.26000e+03 1.45597e-02
7.26100e+03 1.35150e-02
7.26200e+03 1.24707e-02
7.26300e+03 1.14266e-02
7.26400e+03 1.07371e-02
7.26500e+03 1.00477e-02
7.26600e+03 9.35854e-03
7.26700e+03 8.66951e-03
7.26800e+03 7.98071e-03
7.26900e+03 7.52015e-03
7.27000e+03 7.05967e-03
7.27100e+03 6.59897e-03
7.27200e+03 6.13844e-03
7.27300e+03 5.67811e-03
7.27400e+03 5.36603e-03
7.27500e+03 5.05407e-03
7.27600e+03 4.74223e-03
7.27700e+03 4.43052e-03
7.27800e+03 4.11893e-03
7.27900e+03 3.90477e-03
7.28000e+03 3.69068e-03
7.28100e+03 3.47664e-03
7.28200e+03 3.26268e-03
7.28300e+03 3.04881e-03
7.28400e+03 2.89979e-03
7.28500e+03 2.75083e-03
7.28600e+03 2.60194e-03
7.28700e+03 2.45310e-03
7.28800e+03 2.30433e-03
7.28900e+03 2.19928e-03
7.29000e+03 2.09429e-03
7.29100e+03 1.98936e-03
7.29200e+03 1.88447e-03
7.29300e+03 1.77962e-03
7.29400e+03 1.70465e-03
7.29500e+03 1.62972e-03
7.29600e+03 1.55481e-03
7.29700e+03 1.47993e-03
7.29800e+03 1.40509e-03
7.29900e+03 1.35092e-03
7.30000e+03 1.29678e-03
7.30100e+03 1.24270e-03
7.30200e+03 1.18864e-03
7.30300e+03 1.13459e-03
7.30400e+03 1.09503e-03
7.30500e+03 1.05549e-03
7.30600e+03 1.01595e-03
7.30700e+03 9.76436e-04
7.30800e+03 9.36929e-04
7.30900e+03 9.07690e-04
7.31000e+03 8.78463e-04
7.31100e+03 8.49252e-04
7.31200e+03 8.20049e-04
7.31300e+03 7.90855e-04
7.31400e+03 7.69017e-04
7.31500e+03 7.47186e-04
7.31600e+03 7.25362e-04
7.31700e+03 7.03544e-04
7.31800e+03 6.81735e-04
7.31900e+03 6.65246e-04
7.32000e+03 6.48763e-04
7.32100e+03 6.32317e-04
7.32200e+03 6.15873e-04
7.32300e+03 5.99432e-04
7.32400e+03 5.86880e-04
7.32500e+03 5.74331e-04
7.32600e+03 5.61784e-04
7.32700e+03 5.49239e-04
7.32800e+03 5.36698e-04
7.32900e+03 5.27023e-04
7.33000e+03 5.17349e-04
7.33100e+03 5.07642e-04
7.33200e+03 4.97940e-04
7.33300e+03 4.88240e-04
7.33400e+03 4.80669e-04
7.33500e+03 4.73103e-04
7.33600e+03 4.65539e-04
7.33700e+03 4.57978e-04
7.33800e+03 4.50419e-04
7.33900e+03 4.44454e-04
7.34000e+03 4.38491e-04
7.34100e+03 4.32520e-04
7.34200e+03 4.26553e-04
7.34300e+03 4.20586e-04
7.34400e+03 4.15821e-04
7.34500e+03 4.11057e-04
7.34600e+03 4.06296e-04
7.34700e+03 4.01537e-04
7.34800e+03 3.96778e-04
7.34900e+03 3.92930e-04
7.35000e+03 3.89084e-04
7.35100e+03 3.85260e-04
7.35200e+03 3.81437e-04
7.35300e+03 3.77616e-04
7.35400e+03 3.74486e-04
7.35500e+03 3.71357e-04
7.35600e+03 3.68230e-04
7.35700e+03 3.65102e-04
7.35800e+03 3.61976e-04
7.35900e+03 3.59379e-04
7.36000e+03 3.56782e-04
7.36100e+03 3.54188e-04
7.36200e+03 3.51594e-04
7.36300e+03 3.49001e-04
7.36400e+03 3.46813e-04
7.36500e+03 3.44625e-04
7.36600e+03 3.42439e-04
7.36700e+03 3.40253e-04
7.36800e+03 3.38068e-04
7.36900e+03 3.36193e-04
7.37000e+03 3.34319e-04
7.37100e+03 3.32455e-04
7.37200e+03 3.30592e-04
7.37300e+03 3.28730e-04
7.37400e+03 3.27104e-04
7.37500e+03 3.25480e-04
7.37600e+03 3.23856e-04
7.37700e+03 3.22233e-04
7.37800e+03 3.20610e-04
7.37900e+03 3.19169e-04
7.38000e+03 3.17728e-04
7.38100e+03 3.16237e-04
7.38200e+03 3.14747e-04
7.38300e+03 3.13258e-04
7.38400e+03 3.11908e-04
7.38500e+03 3.10558e-04
7.38600e+03 3.09209e-04
7.38700e+03 3.07861e-04
7.38800e+03 3.06513e-04
7.38900e+03 3.05270e-04
7.39000e+03 3.04029e-04
7.39100e+03 3.02862e-04
7.39200e+03 3.01696e-04
7.39300e+03 3.00531e-04
7.39400e+03 2.99441e-04
7.39500e+03 2.98353e-04
7.39600e+03 2.97264e-04
7.39700e+03 2.96175e-04
7.39800e+03 2.95087e-04
7.39900e+03 2.94054e-04
7.40000e+03 2.93022e-04
7.40100e+03 2.91883e-04
7.40200e+03 2.90744e-04
7.40300e+03 2.89607e-04
7.40400e+03 2.88510e-04
7.40500e+03 2.87413e-04
7.40600e+03 2.86317e-04
7.40700e+03 2.85223e-04
7.40800e+03 2.84128e-04
7.40900e+03 2.83061e-04
7.41000e+03 2.81994e-04
7.41100e+03 2.81012e-04
7.41200e+03 2.80029e-04
7.41300e+03 2.79047e-04
7.41400e+03 2.78080e-04
7.41500e+03 2.77114e-04
7.41600e+03 2.76147e-04
7.41700e+03 2.75181e-04
7.41800e+03 2.74215e-04
7.41900e+03 2.73256e-04
7.42000e+03 2.72297e-04
7.42100e+03 2.71286e-04
7.42200e+03 2.70276e-04
7.42300e+03 2.69266e-04
7.42400e+03 2.68257e-04
7.42500e+03 2.67248e-04
7.42600e+03 2.66240e-04
7.42700e+03 2.65232e-04
7.42800e+03 2.64225e-04
7.42900e+03 2.63214e-04
7.43000e+03 2.62203e-04
7.43100e+03 2.61206e-04
7.43200e+03 2.60210e-04
7.43300e+03 2.59215e-04
7.43400e+03 2.58209e-04
7.43500e+03 2.57205e-04
7.43600e+03 2.56201e-04
7.43700e+03 2.55197e-04
7.43800e+03 2.54194e-04
7.43900e+03 2.53179e-04
7.44000e+03 2.52164e-04
7.44100e+03 2.51149e-04
7.44200e+03 2.50133e-04
7.44300e+03 2.49118e-04
7.44400e+03 2.48089e-04
7.44500e+03 2.47060e-04
7.44600e+03 2.46032e-04
7.44700e+03 2.45003e-04
7.44800e+03 2.43976e-04
7.44900e+03 2.42932e-04
7.45000e+03 2.41888e-04
7.45100e+03 2.40846e-04
7.45200e+03 2.39804e-04
7.45300e+03 2.38763e-04
7.45400e+03 2.37704e-04
7.45500e+03 2.36646e-04
7.45600e+03 2.35588e-04
7.45700e+03 2.34531e-04
7.45800e+03 2.33474e-04
7.45900e+03 2.32399e-04
7.46000e+03 2.31323e-04
7.46100e+03 2.30254e-04
7.46200e+03 2.29185e-04
7.46300e+03 2.28116e-04
7.46400e+03 2.27029e-04
7.46500e+03 2.25942e-04
7.46600e+03 2.24856e-04
7.46700e+03 2.23769e-04
7.46800e+03 2.22684e-04
7.46900e+03 2.21579e-04
7.47000e+03 2.20475e-04
7.47100e+03 2.19368e-04
7.47200e+03 2.18261e-04
7.47300e+03 2.17155e-04
7.47400e+03 2.16029e-04
7.47500e+03 2.14905e-04
7.47600e+03 2.13781e-04
7.47700e+03 2.12658e-04
7.47800e+03 2.11534e-04
7.47900e+03 2.10394e-04
7.48000e+03 2.09253e-04
7.48100e+03 2.08123e-04
7.48200e+03 2.06994e-04
7.48300e+03 2.05865e-04
7.48400e+03 2.04718e-04
7.48500e+03 2.03573e-04
7.48600e+03 2.02428e-04
7.48700e+03 2.01282e-04
7.48800e+03 2.00138e-04
7.48900e+03 1.98977e-04
7.49000e+03 1.97817e-04
7.49100e+03 1.96645e-04
7.49200e+03 1.95474e-04
7.49300e+03 1.94304e-04
7.49400e+03 1.93119e-04
7.49500e+03 1.91935e-04
7.49600e+03 1.90751e-04
7.49700e+03 1.89568e-04
7.49800e+03 1.88385e-04
7.49900e+03 1.87189e-04
7.50000e+03 1.85995e-04
7.50100e+03 1.84810e-04
7.50200e+03 1.83626e-04
7.50300e+03 1.82442e-04
7.50400e+03 1.81247e-04
7.50500e+03 1.80053e-04
7.50600e+03 1.78859e-04
7.50700e+03 1.77665e-04
7.50800e+03 1.76472e-04
7.50900e+03 1.75269e-04
7.51000e+03 1.74067e-04
7.51100e+03 1.72849e-04
7.51200e+03 1.71632e-04
7.51300e+03 1.70415e-04
7.51400e+03 1.69190e-04
7.51500e+03 1.67967e-04
7.51600e+03 1.66744e-04
7.51700e+03 1.65522e-04
7.51800e+03 1.64301e-04
7.51900e+03 1.63075e-04
7.52000e+03 1.61849e-04
7.52100e+03 1.60662e-04
7.52200e+03 1.59474e-04
7.52300e+03 1.58286e-04
7.52400e+03 1.57096e-04
7.52500e+03 1.55905e-04
7.52600e+03 1.54715e-04
7.52700e+03 1.53524e-04
7.52800e+03 1.52334e-04
7.52900e+03 1.51143e-04
7.53000e+03 1.49952e-04
7.53100e+03 1.48701e-04
7.53200e+03 1.47452e-04
