# Filter name : HST/ACS_WFC.FR656N
# Description : FR656N ramp filter for HST ACS_WFC at central wavelength
# Photometric system : ACS-WFC
# FilterType : photon
# Band name : ------
# Observatory : HST
# Instrument : ACS
# Comments : Response calculated using the stsynphot python package by STScI. In particular, function stsynphot.band("acs,wfc1,fr656n#6560"). Please, take a look to stsynphot documentation and HST instrument documentation
# 
6.15700e+03 7.62024e-05
6.15800e+03 7.73144e-05
6.15900e+03 7.84268e-05
6.16000e+03 7.95394e-05
6.16100e+03 8.06598e-05
6.16200e+03 8.18175e-05
6.16300e+03 8.29757e-05
6.16400e+03 8.41343e-05
6.16500e+03 8.52933e-05
6.16600e+03 8.64529e-05
6.16700e+03 8.76471e-05
6.16800e+03 8.88419e-05
6.16900e+03 9.00372e-05
6.17000e+03 9.12330e-05
6.17100e+03 9.24276e-05
6.17200e+03 9.36544e-05
6.17300e+03 9.48816e-05
6.17400e+03 9.61093e-05
6.17500e+03 9.73375e-05
6.17600e+03 9.85659e-05
6.17700e+03 9.98242e-05
6.17800e+03 1.01083e-04
6.17900e+03 1.02342e-04
6.18000e+03 1.03601e-04
6.18100e+03 1.04859e-04
6.18200e+03 1.06144e-04
6.18300e+03 1.07429e-04
6.18400e+03 1.08714e-04
6.18500e+03 1.10000e-04
6.18600e+03 1.11287e-04
6.18700e+03 1.12596e-04
6.18800e+03 1.13907e-04
6.18900e+03 1.15217e-04
6.19000e+03 1.16528e-04
6.19100e+03 1.17843e-04
6.19200e+03 1.19178e-04
6.19300e+03 1.20514e-04
6.19400e+03 1.21850e-04
6.19500e+03 1.23187e-04
6.19600e+03 1.24524e-04
6.19700e+03 1.25878e-04
6.19800e+03 1.27233e-04
6.19900e+03 1.28588e-04
6.20000e+03 1.29944e-04
6.20100e+03 1.31285e-04
6.20200e+03 1.32639e-04
6.20300e+03 1.33993e-04
6.20400e+03 1.35347e-04
6.20500e+03 1.36702e-04
6.20600e+03 1.38057e-04
6.20700e+03 1.39421e-04
6.20800e+03 1.40787e-04
6.20900e+03 1.42152e-04
6.21000e+03 1.43517e-04
6.21100e+03 1.44884e-04
6.21200e+03 1.46257e-04
6.21300e+03 1.47631e-04
6.21400e+03 1.49004e-04
6.21500e+03 1.50378e-04
6.21600e+03 1.51752e-04
6.21700e+03 1.53129e-04
6.21800e+03 1.54507e-04
6.21900e+03 1.55885e-04
6.22000e+03 1.57263e-04
6.22100e+03 1.58658e-04
6.22200e+03 1.60053e-04
6.22300e+03 1.61450e-04
6.22400e+03 1.62845e-04
6.22500e+03 1.64242e-04
6.22600e+03 1.65640e-04
6.22700e+03 1.67034e-04
6.22800e+03 1.68429e-04
6.22900e+03 1.69825e-04
6.23000e+03 1.71221e-04
6.23100e+03 1.72600e-04
6.23200e+03 1.73974e-04
6.23300e+03 1.75347e-04
6.23400e+03 1.76721e-04
6.23500e+03 1.78096e-04
6.23600e+03 1.79470e-04
6.23700e+03 1.80835e-04
6.23800e+03 1.82201e-04
6.23900e+03 1.83568e-04
6.24000e+03 1.84933e-04
6.24100e+03 1.86310e-04
6.24200e+03 1.87675e-04
6.24300e+03 1.89040e-04
6.24400e+03 1.90405e-04
6.24500e+03 1.91772e-04
6.24600e+03 1.93138e-04
6.24700e+03 1.94491e-04
6.24800e+03 1.95844e-04
6.24900e+03 1.97197e-04
6.25000e+03 1.98551e-04
6.25100e+03 1.99900e-04
6.25200e+03 2.01234e-04
6.25300e+03 2.02568e-04
6.25400e+03 2.03901e-04
6.25500e+03 2.05236e-04
6.25600e+03 2.06571e-04
6.25700e+03 2.07888e-04
6.25800e+03 2.09205e-04
6.25900e+03 2.10522e-04
6.26000e+03 2.11840e-04
6.26100e+03 2.13164e-04
6.26200e+03 2.14469e-04
6.26300e+03 2.15775e-04
6.26400e+03 2.17081e-04
6.26500e+03 2.18386e-04
6.26600e+03 2.19693e-04
6.26700e+03 2.20980e-04
6.26800e+03 2.22266e-04
6.26900e+03 2.23554e-04
6.27000e+03 2.24841e-04
6.27100e+03 2.26145e-04
6.27200e+03 2.27429e-04
6.27300e+03 2.28713e-04
6.27400e+03 2.29998e-04
6.27500e+03 2.31283e-04
6.27600e+03 2.32569e-04
6.27700e+03 2.33835e-04
6.27800e+03 2.35100e-04
6.27900e+03 2.36366e-04
6.28000e+03 2.37633e-04
6.28100e+03 2.38868e-04
6.28200e+03 2.40083e-04
6.28300e+03 2.41297e-04
6.28400e+03 2.42512e-04
6.28500e+03 2.43727e-04
6.28600e+03 2.44942e-04
6.28700e+03 2.46138e-04
6.28800e+03 2.47334e-04
6.28900e+03 2.48531e-04
6.29000e+03 2.49727e-04
6.29100e+03 2.50930e-04
6.29200e+03 2.52117e-04
6.29300e+03 2.53303e-04
6.29400e+03 2.54490e-04
6.29500e+03 2.55677e-04
6.29600e+03 2.56864e-04
6.29700e+03 2.58036e-04
6.29800e+03 2.59209e-04
6.29900e+03 2.60382e-04
6.30000e+03 2.61555e-04
6.30100e+03 2.62725e-04
6.30200e+03 2.63885e-04
6.30300e+03 2.65045e-04
6.30400e+03 2.66204e-04
6.30500e+03 2.67365e-04
6.30600e+03 2.68524e-04
6.30700e+03 2.69679e-04
6.30800e+03 2.70834e-04
6.30900e+03 2.71989e-04
6.31000e+03 2.73144e-04
6.31100e+03 2.74318e-04
6.31200e+03 2.75494e-04
6.31300e+03 2.76669e-04
6.31400e+03 2.77845e-04
6.31500e+03 2.79022e-04
6.31600e+03 2.80199e-04
6.31700e+03 2.81386e-04
6.31800e+03 2.82573e-04
6.31900e+03 2.83761e-04
6.32000e+03 2.84948e-04
6.32100e+03 2.86136e-04
6.32200e+03 2.87345e-04
6.32300e+03 2.88554e-04
6.32400e+03 2.89764e-04
6.32500e+03 2.90974e-04
6.32600e+03 2.92184e-04
6.32700e+03 2.93430e-04
6.32800e+03 2.94676e-04
6.32900e+03 2.95923e-04
6.33000e+03 2.97169e-04
6.33100e+03 2.98423e-04
6.33200e+03 2.99729e-04
6.33300e+03 3.01036e-04
6.33400e+03 3.02343e-04
6.33500e+03 3.03651e-04
6.33600e+03 3.04959e-04
6.33700e+03 3.06345e-04
6.33800e+03 3.07731e-04
6.33900e+03 3.09117e-04
6.34000e+03 3.10504e-04
6.34100e+03 3.11846e-04
6.34200e+03 3.13295e-04
6.34300e+03 3.14744e-04
6.34400e+03 3.16194e-04
6.34500e+03 3.17643e-04
6.34600e+03 3.19092e-04
6.34700e+03 3.20688e-04
6.34800e+03 3.22283e-04
6.34900e+03 3.23878e-04
6.35000e+03 3.25473e-04
6.35100e+03 3.27106e-04
6.35200e+03 3.28935e-04
6.35300e+03 3.30764e-04
6.35400e+03 3.32594e-04
6.35500e+03 3.34424e-04
6.35600e+03 3.36255e-04
6.35700e+03 3.38347e-04
6.35800e+03 3.40437e-04
6.35900e+03 3.42531e-04
6.36000e+03 3.44623e-04
6.36100e+03 3.46697e-04
6.36200e+03 3.49116e-04
6.36300e+03 3.51535e-04
6.36400e+03 3.53955e-04
6.36500e+03 3.56374e-04
6.36600e+03 3.58795e-04
6.36700e+03 3.61672e-04
6.36800e+03 3.64549e-04
6.36900e+03 3.67428e-04
6.37000e+03 3.70306e-04
6.37100e+03 3.73231e-04
6.37200e+03 3.76763e-04
6.37300e+03 3.80296e-04
6.37400e+03 3.83830e-04
6.37500e+03 3.87366e-04
6.37600e+03 3.90903e-04
6.37700e+03 3.95245e-04
6.37800e+03 3.99589e-04
6.37900e+03 4.03934e-04
6.38000e+03 4.08282e-04
6.38100e+03 4.12606e-04
6.38200e+03 4.18003e-04
6.38300e+03 4.23402e-04
6.38400e+03 4.28803e-04
6.38500e+03 4.34204e-04
6.38600e+03 4.39607e-04
6.38700e+03 4.46448e-04
6.38800e+03 4.53291e-04
6.38900e+03 4.60136e-04
6.39000e+03 4.66982e-04
6.39100e+03 4.73798e-04
6.39200e+03 4.82550e-04
6.39300e+03 4.91304e-04
6.39400e+03 5.00058e-04
6.39500e+03 5.08813e-04
6.39600e+03 5.17571e-04
6.39700e+03 5.28956e-04
6.39800e+03 5.40343e-04
6.39900e+03 5.51731e-04
6.40000e+03 5.63123e-04
6.40100e+03 5.74521e-04
6.40200e+03 5.89517e-04
6.40300e+03 6.04516e-04
6.40400e+03 6.19517e-04
6.40500e+03 6.34520e-04
6.40600e+03 6.49527e-04
6.40700e+03 6.69500e-04
6.40800e+03 6.89477e-04
6.40900e+03 7.09454e-04
6.41000e+03 7.29436e-04
6.41100e+03 7.49473e-04
6.41200e+03 7.76437e-04
6.41300e+03 8.03411e-04
6.41400e+03 8.30392e-04
6.41500e+03 8.57383e-04
6.41600e+03 8.84378e-04
6.41700e+03 9.21142e-04
6.41800e+03 9.57917e-04
6.41900e+03 9.94702e-04
6.42000e+03 1.03150e-03
6.42100e+03 1.06815e-03
6.42200e+03 1.11870e-03
6.42300e+03 1.16925e-03
6.42400e+03 1.21981e-03
6.42500e+03 1.27036e-03
6.42600e+03 1.32091e-03
6.42700e+03 1.39152e-03
6.42800e+03 1.46213e-03
6.42900e+03 1.53274e-03
6.43000e+03 1.60335e-03
6.43100e+03 1.67403e-03
6.43200e+03 1.77402e-03
6.43300e+03 1.87402e-03
6.43400e+03 1.97403e-03
6.43500e+03 2.07404e-03
6.43600e+03 2.17407e-03
6.43700e+03 2.31750e-03
6.43800e+03 2.46094e-03
6.43900e+03 2.60439e-03
6.44000e+03 2.74786e-03
6.44100e+03 2.89138e-03
6.44200e+03 3.10010e-03
6.44300e+03 3.30885e-03
6.44400e+03 3.51762e-03
6.44500e+03 3.72641e-03
6.44600e+03 3.93524e-03
6.44700e+03 4.24341e-03
6.44800e+03 4.55161e-03
6.44900e+03 4.85986e-03
6.45000e+03 5.16815e-03
6.45100e+03 5.47657e-03
6.45200e+03 5.93856e-03
6.45300e+03 6.40061e-03
6.45400e+03 6.86272e-03
6.45500e+03 7.32495e-03
6.45600e+03 7.78722e-03
6.45700e+03 8.48980e-03
6.45800e+03 9.19251e-03
6.45900e+03 9.89533e-03
6.46000e+03 1.05982e-02
6.46100e+03 1.12999e-02
6.46200e+03 1.23809e-02
6.46300e+03 1.34618e-02
6.46400e+03 1.45426e-02
6.46500e+03 1.56234e-02
6.46600e+03 1.67040e-02
6.46700e+03 1.83854e-02
6.46800e+03 2.00667e-02
6.46900e+03 2.17478e-02
6.47000e+03 2.34288e-02
6.47100e+03 2.51131e-02
6.47200e+03 2.77406e-02
6.47300e+03 3.03685e-02
6.47400e+03 3.29969e-02
6.47500e+03 3.56259e-02
6.47600e+03 3.82553e-02
6.47700e+03 4.23179e-02
6.47800e+03 4.63813e-02
6.47900e+03 5.04454e-02
6.48000e+03 5.45104e-02
6.48100e+03 5.85695e-02
6.48200e+03 6.46518e-02
6.48300e+03 7.07337e-02
6.48400e+03 7.68153e-02
6.48500e+03 8.28970e-02
6.48600e+03 8.89782e-02
6.48700e+03 9.75267e-02
6.48800e+03 1.06075e-01
6.48900e+03 1.14623e-01
6.49000e+03 1.23170e-01
6.49100e+03 1.31725e-01
6.49200e+03 1.42526e-01
6.49300e+03 1.53326e-01
6.49400e+03 1.64129e-01
6.49500e+03 1.74932e-01
6.49600e+03 1.85736e-01
6.49700e+03 1.97424e-01
6.49800e+03 2.09114e-01
6.49900e+03 2.20805e-01
6.50000e+03 2.32496e-01
6.50100e+03 2.44202e-01
6.50200e+03 2.54663e-01
6.50300e+03 2.65126e-01
6.50400e+03 2.75592e-01
6.50500e+03 2.86060e-01
6.50600e+03 2.96529e-01
6.50700e+03 3.04159e-01
6.50800e+03 3.11789e-01
6.50900e+03 3.19420e-01
6.51000e+03 3.27054e-01
6.51100e+03 3.34665e-01
6.51200e+03 3.39236e-01
6.51300e+03 3.43807e-01
6.51400e+03 3.48378e-01
6.51500e+03 3.52950e-01
6.51600e+03 3.57521e-01
6.51700e+03 3.59842e-01
6.51800e+03 3.62162e-01
6.51900e+03 3.64484e-01
6.52000e+03 3.66805e-01
6.52100e+03 3.69101e-01
6.52200e+03 3.70092e-01
6.52300e+03 3.71083e-01
6.52400e+03 3.72073e-01
6.52500e+03 3.73064e-01
6.52600e+03 3.74055e-01
6.52700e+03 3.74415e-01
6.52800e+03 3.74776e-01
6.52900e+03 3.75136e-01
6.53000e+03 3.75497e-01
6.53100e+03 3.75877e-01
6.53200e+03 3.75998e-01
6.53300e+03 3.76120e-01
6.53400e+03 3.76241e-01
6.53500e+03 3.76362e-01
6.53600e+03 3.76483e-01
6.53700e+03 3.76517e-01
6.53800e+03 3.76550e-01
6.53900e+03 3.76584e-01
6.54000e+03 3.76616e-01
6.54100e+03 3.76713e-01
6.54200e+03 3.76786e-01
6.54300e+03 3.76860e-01
6.54400e+03 3.76932e-01
6.54500e+03 3.77006e-01
6.54600e+03 3.77078e-01
6.54700e+03 3.77147e-01
6.54800e+03 3.77215e-01
6.54900e+03 3.77284e-01
6.55000e+03 3.77351e-01
6.55100e+03 3.77345e-01
6.55200e+03 3.77336e-01
6.55300e+03 3.77328e-01
6.55400e+03 3.77321e-01
6.55500e+03 3.77313e-01
6.55600e+03 3.77304e-01
6.55700e+03 3.77297e-01
6.55800e+03 3.77288e-01
6.55900e+03 3.77281e-01
6.56000e+03 3.77273e-01
6.56100e+03 3.77312e-01
6.56200e+03 3.77349e-01
6.56300e+03 3.77388e-01
6.56400e+03 3.77427e-01
6.56500e+03 3.77465e-01
6.56600e+03 3.77504e-01
6.56700e+03 3.77542e-01
6.56800e+03 3.77579e-01
6.56900e+03 3.77618e-01
6.57000e+03 3.77657e-01
6.57100e+03 3.77651e-01
6.57200e+03 3.77641e-01
6.57300e+03 3.77634e-01
6.57400e+03 3.77626e-01
6.57500e+03 3.77619e-01
6.57600e+03 3.77610e-01
6.57700e+03 3.77593e-01
6.57800e+03 3.77574e-01
6.57900e+03 3.77556e-01
6.58000e+03 3.77537e-01
6.58100e+03 3.77545e-01
6.58200e+03 3.77507e-01
6.58300e+03 3.77470e-01
6.58400e+03 3.77433e-01
6.58500e+03 3.77396e-01
6.58600e+03 3.77359e-01
6.58700e+03 3.77179e-01
6.58800e+03 3.77000e-01
6.58900e+03 3.76821e-01
6.59000e+03 3.76641e-01
6.59100e+03 3.76454e-01
6.59200e+03 3.75884e-01
6.59300e+03 3.75315e-01
6.59400e+03 3.74746e-01
6.59500e+03 3.74177e-01
6.59600e+03 3.73609e-01
6.59700e+03 3.72175e-01
6.59800e+03 3.70742e-01
6.59900e+03 3.69309e-01
6.60000e+03 3.67875e-01
6.60100e+03 3.66460e-01
6.60200e+03 3.63386e-01
6.60300e+03 3.60312e-01
6.60400e+03 3.57237e-01
6.60500e+03 3.54162e-01
6.60600e+03 3.51086e-01
6.60700e+03 3.45401e-01
6.60800e+03 3.39715e-01
6.60900e+03 3.34028e-01
6.61000e+03 3.28341e-01
6.61100e+03 3.22626e-01
6.61200e+03 3.13796e-01
6.61300e+03 3.04966e-01
6.61400e+03 2.96136e-01
6.61500e+03 2.87307e-01
6.61600e+03 2.78478e-01
6.61700e+03 2.67260e-01
6.61800e+03 2.56042e-01
6.61900e+03 2.44825e-01
6.62000e+03 2.33608e-01
6.62100e+03 2.22396e-01
6.62200e+03 2.10752e-01
6.62300e+03 1.99108e-01
6.62400e+03 1.87464e-01
6.62500e+03 1.75820e-01
6.62600e+03 1.64175e-01
6.62700e+03 1.54091e-01
6.62800e+03 1.44006e-01
6.62900e+03 1.33921e-01
6.63000e+03 1.23835e-01
6.63100e+03 1.13753e-01
6.63200e+03 1.06155e-01
6.63300e+03 9.85562e-02
6.63400e+03 9.09572e-02
6.63500e+03 8.33576e-02
6.63600e+03 7.57574e-02
6.63700e+03 7.05239e-02
6.63800e+03 6.52901e-02
6.63900e+03 6.00559e-02
6.64000e+03 5.48213e-02
6.64100e+03 4.95855e-02
6.64200e+03 4.61520e-02
6.64300e+03 4.27185e-02
6.64400e+03 3.92848e-02
6.64500e+03 3.58510e-02
6.64600e+03 3.24170e-02
6.64700e+03 3.02107e-02
6.64800e+03 2.80043e-02
6.64900e+03 2.57978e-02
6.65000e+03 2.35911e-02
6.65100e+03 2.13833e-02
6.65200e+03 1.99689e-02
6.65300e+03 1.85545e-02
6.65400e+03 1.71402e-02
6.65500e+03 1.57260e-02
6.65600e+03 1.43119e-02
6.65700e+03 1.33999e-02
6.65800e+03 1.24879e-02
6.65900e+03 1.15759e-02
6.66000e+03 1.06641e-02
6.66100e+03 9.75353e-03
6.66200e+03 9.15967e-03
6.66300e+03 8.56568e-03
6.66400e+03 7.97157e-03
6.66500e+03 7.37733e-03
6.66600e+03 6.78297e-03
6.66700e+03 6.38984e-03
6.66800e+03 5.99664e-03
6.66900e+03 5.60334e-03
6.67000e+03 5.20998e-03
6.67100e+03 4.81574e-03
6.67200e+03 4.55092e-03
6.67300e+03 4.28614e-03
6.67400e+03 4.02138e-03
6.67500e+03 3.75665e-03
6.67600e+03 3.49196e-03
6.67700e+03 3.31149e-03
6.67800e+03 3.13104e-03
6.67900e+03 2.95062e-03
6.68000e+03 2.77022e-03
6.68100e+03 2.59022e-03
6.68200e+03 2.46578e-03
6.68300e+03 2.34133e-03
6.68400e+03 2.21685e-03
6.68500e+03 2.09235e-03
6.68600e+03 1.96783e-03
6.68700e+03 1.88055e-03
6.68800e+03 1.79325e-03
6.68900e+03 1.70594e-03
6.69000e+03 1.61861e-03
6.69100e+03 1.53117e-03
6.69200e+03 1.46904e-03
6.69300e+03 1.40690e-03
6.69400e+03 1.34477e-03
6.69500e+03 1.28263e-03
6.69600e+03 1.22049e-03
6.69700e+03 1.17577e-03
6.69800e+03 1.13105e-03
6.69900e+03 1.08633e-03
6.70000e+03 1.04161e-03
6.70100e+03 9.96824e-04
6.70200e+03 9.64191e-04
6.70300e+03 9.31561e-04
6.70400e+03 8.98932e-04
6.70500e+03 8.66306e-04
6.70600e+03 8.33684e-04
6.70700e+03 8.09629e-04
6.70800e+03 7.85579e-04
6.70900e+03 7.61527e-04
6.71000e+03 7.37479e-04
6.71100e+03 7.13538e-04
6.71200e+03 6.95701e-04
6.71300e+03 6.77863e-04
6.71400e+03 6.60018e-04
6.71500e+03 6.42171e-04
6.71600e+03 6.24318e-04
6.71700e+03 6.10866e-04
6.71800e+03 5.97412e-04
6.71900e+03 5.83954e-04
6.72000e+03 5.70493e-04
6.72100e+03 5.56981e-04
6.72200e+03 5.46672e-04
6.72300e+03 5.36362e-04
6.72400e+03 5.26052e-04
6.72500e+03 5.15741e-04
6.72600e+03 5.05430e-04
6.72700e+03 4.97470e-04
6.72800e+03 4.89509e-04
6.72900e+03 4.81548e-04
6.73000e+03 4.73587e-04
6.73100e+03 4.65586e-04
6.73200e+03 4.59326e-04
6.73300e+03 4.53066e-04
6.73400e+03 4.46807e-04
6.73500e+03 4.40547e-04
6.73600e+03 4.34289e-04
6.73700e+03 4.29325e-04
6.73800e+03 4.24361e-04
6.73900e+03 4.19398e-04
6.74000e+03 4.14435e-04
6.74100e+03 4.09494e-04
6.74200e+03 4.05520e-04
6.74300e+03 4.01545e-04
6.74400e+03 3.97573e-04
6.74500e+03 3.93599e-04
6.74600e+03 3.89626e-04
6.74700e+03 3.86379e-04
6.74800e+03 3.83135e-04
6.74900e+03 3.79888e-04
6.75000e+03 3.76642e-04
6.75100e+03 3.73433e-04
6.75200e+03 3.70772e-04
6.75300e+03 3.68109e-04
6.75400e+03 3.65448e-04
6.75500e+03 3.62784e-04
6.75600e+03 3.60121e-04
6.75700e+03 3.57872e-04
6.75800e+03 3.55623e-04
6.75900e+03 3.53373e-04
6.76000e+03 3.51123e-04
6.76100e+03 3.48799e-04
6.76200e+03 3.46788e-04
6.76300e+03 3.44779e-04
6.76400e+03 3.42769e-04
6.76500e+03 3.40760e-04
6.76600e+03 3.38752e-04
6.76700e+03 3.36980e-04
6.76800e+03 3.35208e-04
6.76900e+03 3.33437e-04
6.77000e+03 3.31667e-04
6.77100e+03 3.29948e-04
6.77200e+03 3.28407e-04
6.77300e+03 3.26865e-04
6.77400e+03 3.25322e-04
6.77500e+03 3.23781e-04
6.77600e+03 3.22238e-04
6.77700e+03 3.20828e-04
6.77800e+03 3.19416e-04
6.77900e+03 3.18004e-04
6.78000e+03 3.16593e-04
6.78100e+03 3.15177e-04
6.78200e+03 3.13857e-04
6.78300e+03 3.12537e-04
6.78400e+03 3.11217e-04
6.78500e+03 3.09897e-04
6.78600e+03 3.08576e-04
6.78700e+03 3.07325e-04
6.78800e+03 3.06072e-04
6.78900e+03 3.04820e-04
6.79000e+03 3.03567e-04
6.79100e+03 3.02299e-04
6.79200e+03 3.01077e-04
6.79300e+03 2.99854e-04
6.79400e+03 2.98632e-04
6.79500e+03 2.97411e-04
6.79600e+03 2.96189e-04
6.79700e+03 2.94997e-04
6.79800e+03 2.93805e-04
6.79900e+03 2.92613e-04
6.80000e+03 2.91421e-04
6.80100e+03 2.90227e-04
6.80200e+03 2.89049e-04
6.80300e+03 2.87872e-04
6.80400e+03 2.86695e-04
6.80500e+03 2.85517e-04
6.80600e+03 2.84340e-04
6.80700e+03 2.83169e-04
6.80800e+03 2.81998e-04
6.80900e+03 2.80827e-04
6.81000e+03 2.79656e-04
6.81100e+03 2.78476e-04
6.81200e+03 2.77294e-04
6.81300e+03 2.76112e-04
6.81400e+03 2.74931e-04
6.81500e+03 2.73750e-04
6.81600e+03 2.72569e-04
6.81700e+03 2.71380e-04
6.81800e+03 2.70190e-04
6.81900e+03 2.69001e-04
6.82000e+03 2.67812e-04
6.82100e+03 2.66646e-04
6.82200e+03 2.65467e-04
6.82300e+03 2.64287e-04
6.82400e+03 2.63108e-04
6.82500e+03 2.61929e-04
6.82600e+03 2.60749e-04
6.82700e+03 2.59553e-04
6.82800e+03 2.58357e-04
6.82900e+03 2.57161e-04
6.83000e+03 2.55964e-04
6.83100e+03 2.54762e-04
6.83200e+03 2.53541e-04
6.83300e+03 2.52320e-04
6.83400e+03 2.51099e-04
6.83500e+03 2.49878e-04
6.83600e+03 2.48657e-04
6.83700e+03 2.47415e-04
6.83800e+03 2.46174e-04
6.83900e+03 2.44931e-04
6.84000e+03 2.43690e-04
6.84100e+03 2.42427e-04
6.84200e+03 2.41142e-04
6.84300e+03 2.39857e-04
6.84400e+03 2.38573e-04
6.84500e+03 2.37289e-04
6.84600e+03 2.36005e-04
6.84700e+03 2.34700e-04
6.84800e+03 2.33395e-04
6.84900e+03 2.32091e-04
6.85000e+03 2.30786e-04
6.85100e+03 2.29500e-04
6.85200e+03 2.28192e-04
6.85300e+03 2.26885e-04
6.85400e+03 2.25578e-04
6.85500e+03 2.24270e-04
6.85600e+03 2.22962e-04
6.85700e+03 2.21635e-04
6.85800e+03 2.20307e-04
6.85900e+03 2.18980e-04
6.86000e+03 2.17653e-04
6.86100e+03 2.16339e-04
6.86200e+03 2.15006e-04
6.86300e+03 2.13673e-04
6.86400e+03 2.12340e-04
6.86500e+03 2.11006e-04
6.86600e+03 2.09673e-04
6.86700e+03 2.08322e-04
6.86800e+03 2.06971e-04
6.86900e+03 2.05620e-04
6.87000e+03 2.04268e-04
6.87100e+03 2.02902e-04
6.87200e+03 2.01519e-04
6.87300e+03 2.00137e-04
6.87400e+03 1.98756e-04
6.87500e+03 1.97374e-04
6.87600e+03 1.95992e-04
6.87700e+03 1.94598e-04
6.87800e+03 1.93203e-04
6.87900e+03 1.91808e-04
6.88000e+03 1.90414e-04
6.88100e+03 1.89025e-04
6.88200e+03 1.87625e-04
6.88300e+03 1.86225e-04
6.88400e+03 1.84825e-04
6.88500e+03 1.83426e-04
6.88600e+03 1.82026e-04
6.88700e+03 1.80619e-04
6.88800e+03 1.79211e-04
6.88900e+03 1.77803e-04
6.89000e+03 1.76396e-04
6.89100e+03 1.74979e-04
6.89200e+03 1.73557e-04
6.89300e+03 1.72135e-04
6.89400e+03 1.70714e-04
6.89500e+03 1.69292e-04
6.89600e+03 1.67871e-04
6.89700e+03 1.66449e-04
6.89800e+03 1.65026e-04
6.89900e+03 1.63604e-04
6.90000e+03 1.62182e-04
6.90100e+03 1.60764e-04
6.90200e+03 1.59348e-04
6.90300e+03 1.57932e-04
6.90400e+03 1.56516e-04
6.90500e+03 1.55100e-04
6.90600e+03 1.53684e-04
6.90700e+03 1.52274e-04
6.90800e+03 1.50864e-04
6.90900e+03 1.49454e-04
6.91000e+03 1.48043e-04
6.91100e+03 1.46655e-04
6.91200e+03 1.45275e-04
6.91300e+03 1.43894e-04
6.91400e+03 1.42514e-04
6.91500e+03 1.41132e-04
6.91600e+03 1.39751e-04
6.91700e+03 1.38381e-04
6.91800e+03 1.37011e-04
6.91900e+03 1.35640e-04
6.92000e+03 1.34269e-04
6.92100e+03 1.32877e-04
6.92200e+03 1.31500e-04
6.92300e+03 1.30123e-04
6.92400e+03 1.28746e-04
6.92500e+03 1.27369e-04
6.92600e+03 1.25993e-04
6.92700e+03 1.24635e-04
6.92800e+03 1.23277e-04
6.92900e+03 1.21920e-04
6.93000e+03 1.20563e-04
6.93100e+03 1.19201e-04
6.93200e+03 1.17862e-04
6.93300e+03 1.16523e-04
6.93400e+03 1.15184e-04
6.93500e+03 1.13846e-04
6.93600e+03 1.12508e-04
6.93700e+03 1.11195e-04
6.93800e+03 1.09882e-04
6.93900e+03 1.08570e-04
6.94000e+03 1.07258e-04
6.94100e+03 1.05959e-04
6.94200e+03 1.04689e-04
6.94300e+03 1.03418e-04
6.94400e+03 1.02148e-04
6.94500e+03 1.00877e-04
6.94600e+03 9.96060e-05
6.94700e+03 9.83667e-05
6.94800e+03 9.71270e-05
6.94900e+03 9.58877e-05
6.95000e+03 9.46478e-05
6.95100e+03 9.33927e-05
6.95200e+03 9.21720e-05
6.95300e+03 9.09517e-05
6.95400e+03 8.97317e-05
6.95500e+03 8.85121e-05
6.95600e+03 8.72927e-05
6.95700e+03 8.61106e-05
6.95800e+03 8.49290e-05
6.95900e+03 8.37475e-05
6.96000e+03 8.25662e-05
6.96100e+03 8.13874e-05
6.96200e+03 8.02479e-05
6.96300e+03 7.91089e-05
6.96400e+03 7.79700e-05
6.96500e+03 7.68313e-05
6.96600e+03 7.56930e-05
