# Filter name : Spitzer/IRAC.I4
# Description : IRAC I4
# Photometric system : IRAC
# FilterType : energy
# Band name : ------
# Observatory : Spitzer
# Instrument : IRAC
# Comments : ------
# 
6.15115e+04 7.10000e-05
6.15846e+04 1.24000e-04
6.16578e+04 1.88000e-04
6.17312e+04 2.06000e-04
6.18048e+04 1.80000e-04
6.18786e+04 1.47000e-04
6.19525e+04 9.60000e-05
6.20266e+04 5.00000e-05
6.21009e+04 8.30000e-05
6.21753e+04 1.23000e-04
6.22500e+04 1.47000e-04
6.23248e+04 1.98000e-04
6.23998e+04 2.28000e-04
6.24750e+04 2.31000e-04
6.25503e+04 2.32000e-04
6.26259e+04 2.87000e-04
6.27016e+04 4.71000e-04
6.27775e+04 7.68000e-04
6.28536e+04 1.18900e-03
6.29299e+04 2.01600e-03
6.30064e+04 3.36200e-03
6.30830e+04 5.23900e-03
6.31598e+04 7.90600e-03
6.32369e+04 1.17400e-02
6.33141e+04 1.62600e-02
6.33915e+04 2.16400e-02
6.34691e+04 2.85700e-02
6.35469e+04 3.61600e-02
6.36248e+04 4.39500e-02
6.37030e+04 5.32900e-02
6.37813e+04 6.24400e-02
6.38599e+04 7.30900e-02
6.39386e+04 8.59400e-02
6.40176e+04 1.00400e-01
6.40967e+04 1.12900e-01
6.41760e+04 1.25500e-01
6.42556e+04 1.37800e-01
6.43353e+04 1.48500e-01
6.44152e+04 1.58900e-01
6.44953e+04 1.67100e-01
6.45756e+04 1.74000e-01
6.46561e+04 1.79300e-01
6.47369e+04 1.84800e-01
6.48178e+04 1.89800e-01
6.48989e+04 1.97100e-01
6.49802e+04 2.04900e-01
6.50618e+04 2.11700e-01
6.51435e+04 2.17000e-01
6.52254e+04 2.19900e-01
6.53076e+04 2.21500e-01
6.53900e+04 2.24000e-01
6.54725e+04 2.27200e-01
6.55553e+04 2.29500e-01
6.56383e+04 2.31300e-01
6.57215e+04 2.32600e-01
6.58049e+04 2.32800e-01
6.58885e+04 2.32900e-01
6.59723e+04 2.33500e-01
6.60563e+04 2.33100e-01
6.61406e+04 2.32500e-01
6.62251e+04 2.30100e-01
6.63098e+04 2.28000e-01
6.63947e+04 2.26100e-01
6.64798e+04 2.23700e-01
6.65651e+04 2.22600e-01
6.66507e+04 2.21600e-01
6.67365e+04 2.22000e-01
6.68225e+04 2.23600e-01
6.69087e+04 2.26200e-01
6.69951e+04 2.28600e-01
6.70818e+04 2.31000e-01
6.71687e+04 2.33000e-01
6.72558e+04 2.34700e-01
6.73432e+04 2.36000e-01
6.74307e+04 2.37200e-01
6.75185e+04 2.37800e-01
6.76066e+04 2.39300e-01
6.76948e+04 2.40600e-01
6.77833e+04 2.41800e-01
6.78720e+04 2.42900e-01
6.79610e+04 2.44000e-01
6.80502e+04 2.44800e-01
6.81396e+04 2.46100e-01
6.82293e+04 2.47100e-01
6.83191e+04 2.48100e-01
6.84093e+04 2.48500e-01
6.84996e+04 2.49100e-01
6.85903e+04 2.49400e-01
6.86811e+04 2.49200e-01
6.87722e+04 2.48800e-01
6.88635e+04 2.48300e-01
6.89551e+04 2.47700e-01
6.90469e+04 2.47300e-01
6.91390e+04 2.47600e-01
6.92313e+04 2.48500e-01
6.93238e+04 2.49200e-01
6.94166e+04 2.49100e-01
6.95097e+04 2.48800e-01
6.96030e+04 2.47900e-01
6.96965e+04 2.46900e-01
6.97904e+04 2.45000e-01
6.98844e+04 2.43400e-01
6.99787e+04 2.42400e-01
7.00733e+04 2.41800e-01
7.01681e+04 2.41800e-01
7.02632e+04 2.41400e-01
7.03585e+04 2.41000e-01
7.04541e+04 2.40900e-01
7.05500e+04 2.40300e-01
7.06461e+04 2.39600e-01
7.07425e+04 2.39200e-01
7.08391e+04 2.39600e-01
7.09360e+04 2.40300e-01
7.10332e+04 2.41100e-01
7.11306e+04 2.41800e-01
7.12283e+04 2.42200e-01
7.13263e+04 2.42100e-01
7.14246e+04 2.41700e-01
7.15231e+04 2.41300e-01
7.16219e+04 2.40700e-01
7.17209e+04 2.40800e-01
7.18203e+04 2.41800e-01
7.19199e+04 2.43300e-01
7.20198e+04 2.44700e-01
7.21199e+04 2.46000e-01
7.22204e+04 2.47700e-01
7.23211e+04 2.49300e-01
7.24221e+04 2.49700e-01
7.25234e+04 2.49400e-01
7.26250e+04 2.48300e-01
7.27268e+04 2.46200e-01
7.28290e+04 2.43800e-01
7.29314e+04 2.42700e-01
7.30341e+04 2.42000e-01
7.31371e+04 2.42800e-01
7.32404e+04 2.44200e-01
7.33440e+04 2.46800e-01
7.34479e+04 2.49500e-01
7.35521e+04 2.52600e-01
7.36566e+04 2.54300e-01
7.37614e+04 2.55600e-01
7.38664e+04 2.56300e-01
7.39718e+04 2.55600e-01
7.40775e+04 2.54700e-01
7.41835e+04 2.53700e-01
7.42897e+04 2.53000e-01
7.43963e+04 2.53900e-01
7.45032e+04 2.55900e-01
7.46104e+04 2.59100e-01
7.47179e+04 2.62900e-01
7.48257e+04 2.66500e-01
7.49339e+04 2.70000e-01
7.50423e+04 2.72800e-01
7.51511e+04 2.75500e-01
7.52601e+04 2.77800e-01
7.53695e+04 2.79600e-01
7.54792e+04 2.80900e-01
7.55893e+04 2.82200e-01
7.56996e+04 2.83000e-01
7.58103e+04 2.83100e-01
7.59213e+04 2.82600e-01
7.60326e+04 2.81600e-01
7.61442e+04 2.81300e-01
7.62562e+04 2.81400e-01
7.63685e+04 2.82100e-01
7.64812e+04 2.83700e-01
7.65941e+04 2.85700e-01
7.67074e+04 2.87200e-01
7.68211e+04 2.88100e-01
7.69351e+04 2.88300e-01
7.70494e+04 2.87200e-01
7.71640e+04 2.86600e-01
7.72790e+04 2.85700e-01
7.73944e+04 2.85900e-01
7.75101e+04 2.86700e-01
7.76261e+04 2.87900e-01
7.77425e+04 2.89100e-01
7.78592e+04 2.90600e-01
7.79763e+04 2.92300e-01
7.80937e+04 2.93900e-01
7.82115e+04 2.95300e-01
7.83297e+04 2.97100e-01
7.84482e+04 2.99000e-01
7.85670e+04 3.00700e-01
7.86862e+04 3.01600e-01
7.88058e+04 3.02200e-01
7.89258e+04 3.01400e-01
7.90461e+04 3.00200e-01
7.91668e+04 2.98000e-01
7.92878e+04 2.96100e-01
7.94092e+04 2.95200e-01
7.95310e+04 2.94800e-01
7.96532e+04 2.95700e-01
7.97757e+04 2.96700e-01
7.98987e+04 2.97700e-01
8.00220e+04 2.99000e-01
8.01456e+04 3.00200e-01
8.02697e+04 3.01300e-01
8.03942e+04 3.02400e-01
8.05190e+04 3.03200e-01
8.06442e+04 3.05000e-01
8.07698e+04 3.06100e-01
8.08958e+04 3.08000e-01
8.10222e+04 3.08900e-01
8.11490e+04 3.09000e-01
8.12762e+04 3.09100e-01
8.14038e+04 3.08600e-01
8.15318e+04 3.08100e-01
8.16602e+04 3.07900e-01
8.17890e+04 3.08500e-01
8.19182e+04 3.09500e-01
8.20478e+04 3.11300e-01
8.21779e+04 3.12700e-01
8.23083e+04 3.13700e-01
8.24392e+04 3.13700e-01
8.25704e+04 3.13700e-01
8.27021e+04 3.13400e-01
8.28342e+04 3.12800e-01
8.29668e+04 3.12500e-01
8.30997e+04 3.12800e-01
8.32331e+04 3.12500e-01
8.33669e+04 3.11900e-01
8.35012e+04 3.10800e-01
8.36359e+04 3.09900e-01
8.37710e+04 3.09400e-01
8.39065e+04 3.09500e-01
8.40425e+04 3.10100e-01
8.41789e+04 3.11700e-01
8.43158e+04 3.13000e-01
8.44531e+04 3.13600e-01
8.45909e+04 3.14000e-01
8.47291e+04 3.13700e-01
8.48678e+04 3.12400e-01
8.50069e+04 3.11300e-01
8.51465e+04 3.10900e-01
8.52866e+04 3.11200e-01
8.54271e+04 3.11200e-01
8.55680e+04 3.11700e-01
8.57095e+04 3.12600e-01
8.58514e+04 3.12200e-01
8.59938e+04 3.12100e-01
8.61366e+04 3.10200e-01
8.62799e+04 3.08500e-01
8.64237e+04 3.06000e-01
8.65680e+04 3.02600e-01
8.67128e+04 2.98100e-01
8.68580e+04 2.94300e-01
8.70037e+04 2.90900e-01
8.71500e+04 2.89200e-01
8.72967e+04 2.89800e-01
8.74439e+04 2.91600e-01
8.75916e+04 2.93800e-01
8.77398e+04 2.95800e-01
8.78885e+04 2.97300e-01
8.80377e+04 2.98400e-01
8.81875e+04 2.98100e-01
8.83377e+04 2.96500e-01
8.84885e+04 2.93900e-01
8.86397e+04 2.91400e-01
8.87915e+04 2.88900e-01
8.89438e+04 2.87500e-01
8.90966e+04 2.85700e-01
8.92500e+04 2.84100e-01
8.94038e+04 2.82700e-01
8.95583e+04 2.80600e-01
8.97132e+04 2.78100e-01
8.98687e+04 2.75600e-01
9.00247e+04 2.73700e-01
9.01813e+04 2.71300e-01
9.03384e+04 2.68600e-01
9.04960e+04 2.65900e-01
9.06543e+04 2.64100e-01
9.08130e+04 2.61600e-01
9.09723e+04 2.57800e-01
9.11322e+04 2.53600e-01
9.12927e+04 2.49700e-01
9.14537e+04 2.42900e-01
9.16152e+04 2.34500e-01
9.17774e+04 2.24200e-01
9.19401e+04 2.14100e-01
9.21034e+04 2.01500e-01
9.22673e+04 1.89800e-01
9.24318e+04 1.77400e-01
9.25968e+04 1.65300e-01
9.27625e+04 1.53400e-01
9.29287e+04 1.43700e-01
9.30956e+04 1.33400e-01
9.32630e+04 1.23500e-01
9.34310e+04 1.13200e-01
9.35997e+04 1.02200e-01
9.37690e+04 9.07300e-02
9.39388e+04 7.91500e-02
9.41093e+04 6.78300e-02
9.42804e+04 5.60700e-02
9.44522e+04 4.57800e-02
9.46245e+04 3.60400e-02
9.47975e+04 2.73900e-02
9.49711e+04 2.01500e-02
9.51454e+04 1.44500e-02
9.53203e+04 1.02100e-02
9.54958e+04 7.23400e-03
9.56720e+04 4.91000e-03
9.58489e+04 3.29100e-03
9.60264e+04 2.30000e-03
9.62045e+04 1.61600e-03
9.63833e+04 1.14400e-03
9.65628e+04 8.18000e-04
9.67430e+04 5.10000e-04
9.69238e+04 2.79000e-04
9.71053e+04 1.66000e-04
9.72875e+04 1.18000e-04
9.74704e+04 9.00000e-05
9.76539e+04 1.15000e-04
9.78382e+04 1.34000e-04
9.80231e+04 6.60000e-05
9.82088e+04 4.80000e-05
9.83951e+04 9.50000e-05
9.85822e+04 1.02000e-04
9.87700e+04 1.64000e-04
9.89585e+04 2.99000e-04
9.91477e+04 3.34000e-04
9.93376e+04 3.25000e-04
9.95283e+04 3.20000e-04
9.97197e+04 2.76000e-04
9.99118e+04 2.91000e-04
1.00105e+05 2.74000e-04
1.00298e+05 1.61000e-04
1.00493e+05 1.57000e-04
1.00688e+05 2.08000e-04
1.00884e+05 1.88000e-04
1.01080e+05 1.45000e-04
1.01278e+05 1.60000e-04
1.01476e+05 2.33000e-04
1.01675e+05 2.89000e-04
1.01875e+05 2.64000e-04
1.02075e+05 1.82000e-04
1.02277e+05 8.80000e-05
1.02479e+05 4.70000e-05
1.02682e+05 1.14000e-04
1.02885e+05 2.13000e-04
1.03090e+05 2.45000e-04
1.03295e+05 2.14000e-04
1.03501e+05 1.96000e-04
1.03708e+05 2.02000e-04
1.03916e+05 2.30000e-04
1.04125e+05 2.73000e-04
1.04334e+05 2.71000e-04
1.04545e+05 2.59000e-04
1.04756e+05 2.52000e-04
1.04968e+05 1.90000e-04
